# Pulseq sequence file
# Created by PyPulseq

[VERSION]
major 1
minor 4
revision 0

[DEFINITIONS]
AdcRasterTime 1e-07 
BlockDurationRaster 1e-05 
GradientRasterTime 1e-05 
RadiofrequencyRasterTime 1e-06 
TotalDuration 1.89496 

# Format of blocks:
# NUM DUR RF  GX  GY  GZ  ADC  EXT
[BLOCKS]
  1 218   1   0   0   1  0  0
  2  72   0   0   0   2  0  0
  3 221   0   3   4   0  1  0
  4 100   0   5   6   7  0  0
  5  78   0   8   9   0  0  0
  6 790   0   0   0   0  0  1
  7 218   1   0   0   1  0  0
  8  72   0   0   0   2  0  0
  9 221   0  10  11   0  1  0
 10 100   0  12  13   7  0  0
 11  82   0  14  15   0  0  0
 12 790   0   0   0   0  0  1
 13 218   1   0   0   1  0  0
 14  72   0   0   0   2  0  0
 15 221   0  16  17   0  1  0
 16 100   0  18  19   7  0  0
 17  76   0  20  21   0  0  0
 18 790   0   0   0   0  0  1
 19 218   1   0   0   1  0  0
 20  72   0   0   0   2  0  0
 21 221   0  22  23   0  1  0
 22 100   0  24  25   7  0  0
 23  84   0  26  27   0  0  0
 24 790   0   0   0   0  0  1
 25 218   1   0   0   1  0  0
 26  72   0   0   0   2  0  0
 27 221   0  28  29   0  1  0
 28 100   0  30  31   7  0  0
 29  72   0  32  33   0  0  0
 30 790   0   0   0   0  0  1
 31 218   1   0   0   1  0  0
 32  72   0   0   0   2  0  0
 33 221   0  34  35   0  1  0
 34 100   0  36  37   7  0  0
 35  84   0  38  39   0  0  0
 36 790   0   0   0   0  0  1
 37 218   1   0   0   1  0  0
 38  72   0   0   0   2  0  0
 39 221   0  40  41   0  1  0
 40 100   0  42  43   7  0  0
 41  72   0  44  45   0  0  0
 42 790   0   0   0   0  0  1
 43 218   1   0   0   1  0  0
 44  72   0   0   0   2  0  0
 45 221   0  46  47   0  1  0
 46 100   0  48  49   7  0  0
 47  84   0  50  51   0  0  0
 48 790   0   0   0   0  0  1
 49 218   1   0   0   1  0  0
 50  72   0   0   0   2  0  0
 51 221   0  52  53   0  1  0
 52 100   0  54  55   7  0  0
 53  74   0  56  57   0  0  0
 54 790   0   0   0   0  0  1
 55 218   1   0   0   1  0  0
 56  72   0   0   0   2  0  0
 57 221   0  58  59   0  1  0
 58 100   0  60  61   7  0  0
 59  84   0  62  63   0  0  0
 60 790   0   0   0   0  0  1
 61 218   1   0   0   1  0  0
 62  72   0   0   0   2  0  0
 63 221   0  64  65   0  1  0
 64 100   0  66  67   7  0  0
 65  76   0  68  69   0  0  0
 66 790   0   0   0   0  0  1
 67 218   1   0   0   1  0  0
 68  72   0   0   0   2  0  0
 69 221   0  70  71   0  1  0
 70 100   0  72  73   7  0  0
 71  82   0  74  75   0  0  0
 72 790   0   0   0   0  0  1
 73 218   1   0   0   1  0  0
 74  72   0   0   0   2  0  0
 75 221   0  76  77   0  1  0
 76 100   0  78  79   7  0  0
 77  78   0  80  81   0  0  0
 78 790   0   0   0   0  0  1
 79 218   1   0   0   1  0  0
 80  72   0   0   0   2  0  0
 81 221   0  82  83   0  1  0
 82 100   0  84  85   7  0  0
 83  82   0  86  87   0  0  0
 84 790   0   0   0   0  0  1
 85 218   1   0   0   1  0  0
 86  72   0   0   0   2  0  0
 87 221   0  88  89   0  1  0
 88 100   0  90  91   7  0  0
 89  80   0  92  93   0  0  0
 90 790   0   0   0   0  0  1
 91 218   1   0   0   1  0  0
 92  72   0   0   0   2  0  0
 93 221   0  94  95   0  1  0
 94 100   0  96  97   7  0  0
 95  80   0  98  99   0  0  0
 96 790   0   0   0   0  0  1
 97 218   1   0   0   1  0  0
 98  72   0   0   0   2  0  0
 99 221   0 100 101   0  1  0
100 100   0 102 103   7  0  0
101  82   0 104 105   0  0  0
102 790   0   0   0   0  0  1
103 218   1   0   0   1  0  0
104  72   0   0   0   2  0  0
105 221   0 106 107   0  1  0
106 100   0 108 109   7  0  0
107  78   0 110 111   0  0  0
108 790   0   0   0   0  0  1
109 218   1   0   0   1  0  0
110  72   0   0   0   2  0  0
111 221   0 112 113   0  1  0
112 100   0 114 115   7  0  0
113  82   0 116 117   0  0  0
114 790   0   0   0   0  0  1
115 218   1   0   0   1  0  0
116  72   0   0   0   2  0  0
117 221   0 118 119   0  1  0
118 100   0 120 121   7  0  0
119  76   0 122 123   0  0  0
120 790   0   0   0   0  0  1
121 218   1   0   0   1  0  0
122  72   0   0   0   2  0  0
123 221   0 124 125   0  1  0
124 100   0 126 127   7  0  0
125  84   0 128 129   0  0  0
126 790   0   0   0   0  0  1
127 218   1   0   0   1  0  0
128  72   0   0   0   2  0  0
129 221   0 130 131   0  1  0
130 100   0 132 133   7  0  0
131  74   0 134 135   0  0  0
132 790   0   0   0   0  0  1
133 218   1   0   0   1  0  0
134  72   0   0   0   2  0  0
135 221   0 136 137   0  1  0
136 100   0 138 139   7  0  0
137  84   0 140 141   0  0  0
138 790   0   0   0   0  0  1
139 218   1   0   0   1  0  0
140  72   0   0   0   2  0  0
141 221   0 142 143   0  1  0
142 100   0 144 145   7  0  0
143  72   0 146 147   0  0  0
144 790   0   0   0   0  0  1
145 218   1   0   0   1  0  0
146  72   0   0   0   2  0  0
147 221   0 148 149   0  1  0
148 100   0 150 151   7  0  0
149  84   0 152 153   0  0  0
150 790   0   0   0   0  0  1
151 218   1   0   0   1  0  0
152  72   0   0   0   2  0  0
153 221   0 154 155   0  1  0
154 100   0 156 157   7  0  0
155  72   0 158 159   0  0  0
156 790   0   0   0   0  0  1
157 218   1   0   0   1  0  0
158  72   0   0   0   2  0  0
159 221   0 160 161   0  1  0
160 100   0 162 163   7  0  0
161  84   0 164 165   0  0  0
162 790   0   0   0   0  0  1
163 218   1   0   0   1  0  0
164  72   0   0   0   2  0  0
165 221   0 166 167   0  1  0
166 100   0 168 169   7  0  0
167  76   0 170 171   0  0  0
168 790   0   0   0   0  0  1
169 218   1   0   0   1  0  0
170  72   0   0   0   2  0  0
171 221   0 172 173   0  1  0
172 100   0 174 175   7  0  0
173  82   0 176 177   0  0  0
174 790   0   0   0   0  0  1
175 218   1   0   0   1  0  0
176  72   0   0   0   2  0  0
177 221   0 178 179   0  1  0
178 100   0 180 181   7  0  0
179  78   0 182 183   0  0  0
180 790   0   0   0   0  0  1
181 218   1   0   0   1  0  0
182  72   0   0   0   2  0  0
183 221   0 184 185   0  1  0
184 100   0 186 187   7  0  0
185  82   0 188 189   0  0  0
186 790   0   0   0   0  0  1
187 218   1   0   0   1  0  0
188  72   0   0   0   2  0  0
189 221   0 190 191   0  1  0
190 100   0 192 193   7  0  0
191  80   0 194 195   0  0  0
192 790   0   0   0   0  0  1
193 218   1   0   0   1  0  0
194  72   0   0   0   2  0  0
195 221   0 196 197   0  1  0
196 100   0 198 199   7  0  0
197  80   0 200 201   0  0  0
198 790   0   0   0   0  0  1
199 218   1   0   0   1  0  0
200  72   0   0   0   2  0  0
201 221   0 202 203   0  1  0
202 100   0 204 205   7  0  0
203  80   0 206 207   0  0  0
204 790   0   0   0   0  0  1
205 218   1   0   0   1  0  0
206  72   0   0   0   2  0  0
207 221   0 208 209   0  1  0
208 100   0 210 211   7  0  0
209  80   0 212 213   0  0  0
210 790   0   0   0   0  0  1
211 218   1   0   0   1  0  0
212  72   0   0   0   2  0  0
213 221   0 214 215   0  1  0
214 100   0 216 217   7  0  0
215  82   0 218 219   0  0  0
216 790   0   0   0   0  0  1
217 218   1   0   0   1  0  0
218  72   0   0   0   2  0  0
219 221   0 220 221   0  1  0
220 100   0 222 223   7  0  0
221  78   0 224 225   0  0  0
222 790   0   0   0   0  0  1
223 218   1   0   0   1  0  0
224  72   0   0   0   2  0  0
225 221   0 226 227   0  1  0
226 100   0 228 229   7  0  0
227  82   0 230 231   0  0  0
228 790   0   0   0   0  0  1
229 218   1   0   0   1  0  0
230  72   0   0   0   2  0  0
231 221   0 232 233   0  1  0
232 100   0 234 235   7  0  0
233  76   0 236 237   0  0  0
234 790   0   0   0   0  0  1
235 218   1   0   0   1  0  0
236  72   0   0   0   2  0  0
237 221   0 238 239   0  1  0
238 100   0 240 241   7  0  0
239  84   0 242 243   0  0  0
240 790   0   0   0   0  0  1
241 218   1   0   0   1  0  0
242  72   0   0   0   2  0  0
243 221   0 244 245   0  1  0
244 100   0 246 247   7  0  0
245  72   0 248 249   0  0  0
246 790   0   0   0   0  0  1
247 218   1   0   0   1  0  0
248  72   0   0   0   2  0  0
249 221   0 250 251   0  1  0
250 100   0 252 253   7  0  0
251  84   0 254 255   0  0  0
252 790   0   0   0   0  0  1
253 218   1   0   0   1  0  0
254  72   0   0   0   2  0  0
255 221   0 256 257   0  1  0
256 100   0 258 259   7  0  0
257  72   0 260 261   0  0  0
258 790   0   0   0   0  0  1
259 218   1   0   0   1  0  0
260  72   0   0   0   2  0  0
261 221   0 262 263   0  1  0
262 100   0 264 265   7  0  0
263  84   0 266 267   0  0  0
264 790   0   0   0   0  0  1
265 218   1   0   0   1  0  0
266  72   0   0   0   2  0  0
267 221   0 268 269   0  1  0
268 100   0 270 271   7  0  0
269  74   0 272 273   0  0  0
270 790   0   0   0   0  0  1
271 218   1   0   0   1  0  0
272  72   0   0   0   2  0  0
273 221   0 274 275   0  1  0
274 100   0 276 277   7  0  0
275  84   0 278 279   0  0  0
276 790   0   0   0   0  0  1
277 218   1   0   0   1  0  0
278  72   0   0   0   2  0  0
279 221   0 280 281   0  1  0
280 100   0 282 283   7  0  0
281  76   0 284 285   0  0  0
282 790   0   0   0   0  0  1
283 218   1   0   0   1  0  0
284  72   0   0   0   2  0  0
285 221   0 286 287   0  1  0
286 100   0 288 289   7  0  0
287  82   0 290 291   0  0  0
288 790   0   0   0   0  0  1
289 218   1   0   0   1  0  0
290  72   0   0   0   2  0  0
291 221   0 292 293   0  1  0
292 100   0 294 295   7  0  0
293  78   0 296 297   0  0  0
294 790   0   0   0   0  0  1
295 218   1   0   0   1  0  0
296  72   0   0   0   2  0  0
297 221   0 298 299   0  1  0
298 100   0 300 301   7  0  0
299  82   0 302 303   0  0  0
300 790   0   0   0   0  0  1
301 218   1   0   0   1  0  0
302  72   0   0   0   2  0  0
303 221   0 304 305   0  1  0
304 100   0 306 307   7  0  0
305  80   0 308 309   0  0  0
306 790   0   0   0   0  0  1
307 218   1   0   0   1  0  0
308  72   0   0   0   2  0  0
309 221   0 310 311   0  1  0
310 100   0 312 313   7  0  0
311  80   0 314 315   0  0  0
312 790   0   0   0   0  0  1
313 218   1   0   0   1  0  0
314  72   0   0   0   2  0  0
315 221   0 316 317   0  1  0
316 100   0 318 319   7  0  0
317  82   0 320 321   0  0  0
318 790   0   0   0   0  0  1
319 218   1   0   0   1  0  0
320  72   0   0   0   2  0  0
321 221   0 322 323   0  1  0
322 100   0 324 325   7  0  0
323  78   0 326 327   0  0  0
[RF]
1      57.7792 1 2 0 130 0 0

# Format of arbitrary gradients:
#   time_shape_id of 0 means default timing (stepping with grad_raster starting at 1/2 of grad_raster)
# id amplitude amp_shape_id time_shape_id delay
# ..      Hz/m       ..         ..          us
[GRADIENTS]
3      -740406 3 0 0
4      -595836 4 0 0
5      -740406 5 6 0
6       244559 7 6 0
10       522898 8 0 0
11      -700722 9 0 0
12       380755 7 6 0
13      -680467 5 6 0
16      -586645 10 0 0
17       758952 11 0 0
18       178892 7 6 0
19       758952 7 6 0
22      -684888 12 0 0
23      -516979 13 0 0
24      -644574 5 6 0
25      -438787 5 6 0
28       771685 14 0 0
29       577941 15 0 0
30       771685 7 6 0
31      -111856 5 6 0
34      -511284 16 0 0
35       670219 17 0 0
36      -493459 5 6 0
37       603745 7 6 0
40       569647 18 0 0
41      -778510 19 0 0
42     -43962.1 5 6 0
43      -778510 5 6 0
46       656614 20 0 0
47       544353 21 0 0
48       558292 7 6 0
49       544353 7 6 0
52      -779372 22 0 0
53      -560294 23 0 0
54      -779372 5 6 0
55       -24268 5 6 0
58       591078 24 0 0
59      -643907 25 0 0
60       591078 7 6 0
61      -508564 5 6 0
64      -552759 26 0 0
65       774266 27 0 0
66     -92312.3 5 6 0
67       774266 7 6 0
70      -632005 28 0 0
71      -633276 29 0 0
72      -454941 5 6 0
73      -633276 5 6 0
76       763231 30 0 0
77       545571 31 0 0
78       763231 7 6 0
79       159650 7 6 0
82      -670625 32 0 0
83       620826 33 0 0
84      -670625 5 6 0
85       397835 7 6 0
88       538700 34 0 0
89      -746351 35 0 0
90       225764 7 6 0
91      -746351 5 6 0
94       610292 36 0 0
95       702838 37 0 0
96       337682 7 6 0
97       702838 7 6 0
100      -726653 38 0 0
101      -532110 39 0 0
102      -723756 5 6 0
103      -290150 5 6 0
106       729669 40 0 0
107      -600326 41 0 0
108       729669 7 6 0
109      -274942 5 6 0
112      -525796 42 0 0
113       708682 43 0 0
114      -352314 5 6 0
115       695618 7 6 0
118       590931 44 0 0
119      -750912 45 0 0
120      -210098 5 6 0
121      -750912 5 6 0
124       692211 46 0 0
125       519749 47 0 0
126       662153 7 6 0
127       411780 7 6 0
130      -766405 48 0 0
131      -581981 49 0 0
132      -766405 5 6 0
133       143644 7 6 0
136       513946 50 0 0
137      -676998 51 0 0
138       468093 7 6 0
139      -623618 5 6 0
142      -573510 52 0 0
143       776028 53 0 0
144      76090.9 7 6 0
145       776028 7 6 0
148      -662924 54 0 0
149      -520821 55 0 0
150      -580307 5 6 0
151      -520821 5 6 0
154       779709 56 0 0
155       564853 57 0 0
156       779709 7 6 0
157     -7954.66 5 6 0
160      -569560 58 0 0
161       649798 59 0 0
162      -569560 5 6 0
163       532552 7 6 0
166       556286 60 0 0
167      -777419 61 0 0
168      60242.5 7 6 0
169      -777419 5 6 0
172       637524 62 0 0
173       613938 63 0 0
174       480718 7 6 0
175       613938 7 6 0
178      -769176 64 0 0
179      -548935 65 0 0
180      -769176 5 6 0
181      -127978 5 6 0
184       653614 66 0 0
185      -626014 67 0 0
186       653614 7 6 0
187      -425204 5 6 0
190      -541908 68 0 0
191       755042 69 0 0
192      -194734 5 6 0
193       755042 7 6 0
196      -615189 70 0 0
197      -688286 71 0 0
198      -366433 5 6 0
199      -688286 5 6 0
202       735742 72 0 0
203       535171 73 0 0
204       735126 7 6 0
205       259998 7 6 0
208      -717686 74 0 0
209       604972 75 0 0
210      -717686 5 6 0
211       304856 7 6 0
214       528749 76 0 0
215      -716969 77 0 0
216       323272 7 6 0
217      -709581 5 6 0
220      -595297 78 0 0
221       741590 79 0 0
222       240944 7 6 0
223       741590 7 6 0
226      -699815 80 0 0
227      -522570 81 0 0
228      -678602 5 6 0
229      -384070 5 6 0
232       759815 82 0 0
233       586158 83 0 0
234       759815 7 6 0
235      -175188 5 6 0
238      -516659 84 0 0
239       684027 85 0 0
240      -441926 5 6 0
241       642426 7 6 0
244       577461 86 0 0
245      -772222 87 0 0
246      -108090 5 6 0
247      -772222 5 6 0
250       669448 88 0 0
251       510962 89 0 0
252       601330 7 6 0
253       496399 7 6 0
256      -778715 90 0 0
257      -569178 91 0 0
258      -778715 5 6 0
259      40163.8 7 6 0
262       547070 92 0 0
263      -655879 93 0 0
264       547070 7 6 0
265      -555630 5 6 0
268      -559865 94 0 0
269       779245 95 0 0
270     -28069.7 5 6 0
271       779245 7 6 0
274      -643210 96 0 0
275      -593552 97 0 0
276      -505674 5 6 0
277      -593552 5 6 0
280       773807 98 0 0
281       552353 99 0 0
282       773807 7 6 0
283      96088.3 7 6 0
286      -635488 100 0 0
287       631348 101 0 0
288      -635488 5 6 0
289       451847 7 6 0
292       545170 102 0 0
293      -762443 103 0 0
294       163371 7 6 0
295      -762443 5 6 0
298       620212 104 0 0
299       672558 105 0 0
300       394558 7 6 0
301       672558 7 6 0
304      -745241 106 0 0
305      -538314 107 0 0
306      -745241 5 6 0
307      -229403 5 6 0
310       704477 108 0 0
311      -609723 109 0 0
312       704477 7 6 0
313      -334249 5 6 0
316      -531757 110 0 0
317       725604 111 0 0
318      -293677 5 6 0
319       722332 7 6 0
322      -599805 112 0 0
323      -731001 113 0 0
324      -271380 5 6 0
325      -731001 5 6 0
328       707718 114 0 0
329       525443 115 0 0
330       693891 7 6 0
331       355703 7 6 0
334      -751928 116 0 0
335      -590410 117 0 0
336      -751928 5 6 0
337       206432 7 6 0
340       519425 118 0 0
341      -691324 119 0 0
342       415005 7 6 0
343      -660137 5 6 0
346      -581512 120 0 0
347       767096 121 0 0
348       139904 7 6 0
349       767096 7 6 0
352      -676201 122 0 0
353      -513618 123 0 0
354      -621327 5 6 0
355      -471129 5 6 0
358       776390 124 0 0
359       573054 125 0 0
360       776390 7 6 0
361     -72304.3 5 6 0
364      -523645 126 0 0
365       662162 127 0 0
366      -523645 5 6 0
367       577759 7 6 0
370       564307 128 0 0
371      -779739 129 0 0
372     -4150.92 5 6 0
373      -779739 5 6 0
376       649078 130 0 0
377       572151 131 0 0
378       529767 7 6 0
379       572151 7 6 0
382      -777116 132 0 0
383      -555858 133 0 0
384      -777116 5 6 0
385     -64034.2 5 6 0
388       616276 134 0 0
389      -636859 135 0 0
390       616276 7 6 0
391      -477718 5 6 0
394      -548529 136 0 0
395       768542 137 0 0
396      -131729 5 6 0
397       768542 7 6 0
400      -625387 138 0 0
401      -655681 139 0 0
402      -422010 5 6 0
403      -655681 5 6 0
406       754083 140 0 0
407       541527 141 0 0
408       754083 7 6 0
409       198415 7 6 0
412      -690065 142 0 0
413       614590 143 0 0
414      -690065 5 6 0
415       363071 7 6 0
418       534821 144 0 0
419      -734643 145 0 0
420       263582 7 6 0
421      -733849 5 6 0
424       604419 146 0 0
425       719164 147 0 0
426       301351 7 6 0
427       719164 7 6 0
430      -715964 148 0 0
431      -528382 149 0 0
432      -707996 5 6 0
433      -326730 5 6 0
436       742757 150 0 0
437       594785 151 0 0
438       742757 7 6 0
439      -237324 5 6 0
442      -522244 152 0 0
443       698902 153 0 0
444      -387376 5 6 0
445       676720 7 6 0
448       585658 154 0 0
449      -760661 155 0 0
450      -171479 5 6 0
451      -760661 5 6 0
454       683197 156 0 0
455       516327 157 0 0
456       640262 7 6 0
457       445055 7 6 0
460      -772740 158 0 0
461      -576981 159 0 0
462      -772740 5 6 0
463       104321 7 6 0
466       510639 160 0 0
467      -668661 161 0 0
468       499326 7 6 0
469      -598902 5 6 0
472      -568694 162 0 0
473       778902 163 0 0
474      36364.5 7 6 0
475       778902 7 6 0
478      -655143 164 0 0
479      -549774 165 0 0
480      -552954 5 6 0
481      -549774 5 6 0
484       779098 166 0 0
485       559448 167 0 0
486       779098 7 6 0
487      31870.8 7 6 0
490      -596011 168 0 0
491       642538 169 0 0
492      -596011 5 6 0
493       502773 7 6 0
496       551955 170 0 0
497      -773329 171 0 0
498        99862 7 6 0
499      -773329 5 6 0
502       630723 172 0 0
503       637684 173 0 0
504       448741 7 6 0
505       637684 7 6 0
508      -761637 174 0 0
509      -544795 175 0 0
510      -761637 5 6 0
511      -167088 5 6 0
514       674474 176 0 0
515      -619615 177 0 0
516       674474 7 6 0
517      -391273 5 6 0
520      -537938 178 0 0
521       744113 179 0 0
522      -233035 5 6 0
523       744113 7 6 0
526      -609139 180 0 0
527      -706099 181 0 0
528      -330808 5 6 0
529      -706099 5 6 0
532       724572 182 0 0
533       531392 183 0 0
534       720891 7 6 0
535       297198 7 6 0
538      -732317 184 0 0
539       599270 185 0 0
540      -732317 5 6 0
541       267810 7 6 0
544       525116 186 0 0
545      -706780 187 0 0
546       359084 7 6 0
547      -692148 5 6 0
550      -589902 188 0 0
551       752926 189 0 0
552       202762 7 6 0
553       752926 7 6 0
556      -690451 190 0 0
557      -519089 191 0 0
558      -658104 5 6 0
559      -418221 5 6 0
562       767770 192 0 0
563       581033 193 0 0
564       767770 7 6 0
565      -136160 5 6 0
568      -513291 194 0 0
569       675388 195 0 0
570      -474155 5 6 0
571       619021 7 6 0
574       572583 196 0 0
575      -776734 197 0 0
576       -68516 5 6 0
577      -776734 5 6 0
580       661406 198 0 0
581       526458 199 0 0
582       575198 7 6 0
583       526458 7 6 0
586      -779750 200 0 0
587      -563747 201 0 0
588      -779750 5 6 0
589      347.093 7 6 0
592       574729 202 0 0
593      -648391 203 0 0
594       574729 7 6 0
595      -526969 5 6 0
598      -555434 204 0 0
599       776795 205 0 0
600     -67824.4 5 6 0
601       776795 7 6 0
604      -636211 206 0 0
605      -618599 207 0 0
606      -474706 5 6 0
607      -618599 5 6 0
610       767891 208 0 0
611       548116 209 0 0
612       767891 7 6 0
613       135477 7 6 0
616      -657732 210 0 0
617       624780 211 0 0
618      -657732 5 6 0
619       418807 7 6 0
622       541133 212 0 0
623      -753106 213 0 0
624       202091 7 6 0
625      -753106 5 6 0
628       614018 214 0 0
629       691828 215 0 0
630       359700 7 6 0
631       691828 7 6 0
634      -733554 216 0 0
635      -534457 217 0 0
636      -732555 5 6 0
637      -267158 5 6 0
640       720626 218 0 0
641      -603852 219 0 0
642       720626 7 6 0
643      -297839 5 6 0
646      -528042 220 0 0
647       714977 221 0 0
648      -330179 5 6 0
649       706393 7 6 0
652       594268 222 0 0
653      -743906 223 0 0
654      -233698 5 6 0
655      -743906 5 6 0
658       697980 224 0 0
659       521906 225 0 0
660       674822 7 6 0
661       390672 7 6 0
664      -761488 226 0 0
665      -585149 227 0 0
666      -761488 5 6 0
667       167766 7 6 0
670       515990 228 0 0
671      -682358 229 0 0
672       448173 7 6 0
673      -638084 5 6 0
676      -576525 230 0 0
677       773240 231 0 0
678       100550 7 6 0
679       773240 7 6 0
682      -667878 232 0 0
683      -510348 233 0 0
684      -596459 5 6 0
685      -502242 5 6 0
688       779070 234 0 0
689       568197 235 0 0
690       779070 7 6 0
691     -32564.4 5 6 0
694      -552465 236 0 0
695       654430 237 0 0
696      -552465 5 6 0
697       550266 7 6 0
700       559018 238 0 0
701      -778934 239 0 0
702      35671.1 7 6 0
703      -778934 5 6 0
706       641863 240 0 0
707       598457 241 0 0
708       499859 7 6 0
709       598457 7 6 0
712      -772833 242 0 0
713      -551543 243 0 0
714      -772833 5 6 0
715      -103633 5 6 0
718       639866 244 0 0
719      -630088 245 0 0
720       639866 7 6 0
721      -445625 5 6 0
724      -544407 246 0 0
725       760813 247 0 0
726      -170802 5 6 0
727       760813 7 6 0
730      -619022 248 0 0
731      -676375 249 0 0
732      -387978 5 6 0
733      -676375 5 6 0
736       742968 250 0 0
737       537578 251 0 0
738       742968 7 6 0
739       236663 7 6 0
742      -707704 252 0 0
743       608588 253 0 0
744      -707704 5 6 0
745       327360 7 6 0
748       531020 254 0 0
749      -723524 255 0 0
750       300711 7 6 0
751      -719432 5 6 0
754       598721 256 0 0
755       733614 257 0 0
756       264235 7 6 0
757       733614 7 6 0
760      -705824 258 0 0
761      -524777 259 0 0
762      -690388 5 6 0
763      -362456 5 6 0
766       753906 260 0 0
767       589405 261 0 0
768       753906 7 6 0
769      -199086 5 6 0

# Format of trapezoid gradients:
# id amplitude rise flat fall delay
# ..      Hz/m   us   us   us    us
[TRAP]
 1       520833 130 1920 130   0
 2 -1.48293e+06 360    0 360   0
 7      -376157  90    0  90   0
 8  1.25294e+06 300    0 300   0
 9 -1.60019e+06 390    0 390   0
14       759957 190    0 190   0
15  1.74165e+06 410    0 410   0
20 -1.54953e+06 380    0 380   0
21 -1.34064e+06 320    0 320   0
26  1.72373e+06 420    0 420   0
27      -581502 140    0 140   0
32 -1.40835e+06 340    0 340   0
33  1.52517e+06 360    0 360   0
38      -254360  70    0  70   0
39 -1.73408e+06 420    0 420   0
44  1.44313e+06 350    0 350   0
45  1.45835e+06 360    0 360   0
50 -1.73114e+06 420    0 420   0
51      -417602 110    0 110   0
56  1.53285e+06 370    0 370   0
57 -1.38565e+06 330    0 330   0
62      -643093 170    0 170   0
63  1.71495e+06 420    0 420   0
68 -1.30945e+06 310    0 310   0
69   -1.592e+06 380    0 380   0
74  1.72674e+06 410    0 410   0
75       818468 210    0 210   0
80 -1.63624e+06 390    0 390   0
81  1.21202e+06 290    0 290   0
86       971310 240    0 240   0
87 -1.68348e+06 410    0 410   0
92  1.09019e+06 270    0 270   0
93  1.66605e+06 400    0 400   0
98 -1.66801e+06 400    0 400   0
99 -1.08358e+06 270    0 270   0
104  1.68195e+06 410    0 410   0
105      -979005 240    0 240   0
110 -1.20612e+06 290    0 290   0
111  1.63865e+06 390    0 390   0
116      -827489 210    0 210   0
117 -1.72561e+06 410    0 410   0
122  1.59486e+06 380    0 380   0
123  1.30422e+06 310    0 310   0
128 -1.71425e+06 420    0 420   0
129       654432 170    0 170   0
134  1.38104e+06 330    0 330   0
135 -1.53616e+06 370    0 370   0
140       435294 110    0 110   0
141  1.73084e+06 420    0 420   0
146 -1.46211e+06 360    0 360   0
147 -1.43911e+06 350    0 350   0
152  1.73418e+06 420    0 420   0
153       226508  70    0  70   0
158 -1.52161e+06 360    0 360   0
159  1.41267e+06 340    0 340   0
164       567658 140    0 140   0
165 -1.72424e+06 420    0 420   0
170  1.34556e+06 320    0 320   0
171  1.54651e+06 380    0 380   0
176 -1.74259e+06 410    0 410   0
177      -749894 190    0 190   0
182   1.5976e+06 390    0 390   0
183 -1.25851e+06 300    0 300   0
188      -929076 220    0 220   0
189  1.70554e+06 410    0 410   0
194 -1.14869e+06 280    0 280   0
195 -1.63422e+06 400    0 400   0
200  1.69681e+06 400    0 400   0
201  1.05899e+06 250    0 250   0
206 -1.69826e+06 400    0 400   0
207  1.05301e+06 250    0 250   0
212  1.15383e+06 280    0 280   0
213 -1.63244e+06 400    0 400   0
218       922076 220    0 220   0
219  1.70663e+06 410    0 410   0
224 -1.59547e+06 390    0 390   0
225 -1.26307e+06 300    0 300   0
230  1.74335e+06 410    0 410   0
231      -741614 190    0 190   0
236  -1.3496e+06 320    0 320   0
237  1.54401e+06 380    0 380   0
242      -556269 140    0 140   0
243 -1.72466e+06 420    0 420   0
248  1.51867e+06 360    0 360   0
249  1.41621e+06 340    0 340   0
254 -1.73426e+06 420    0 420   0
255       237535  60    0  60   0
260  1.46518e+06 360    0 360   0
261  -1.4358e+06 350    0 350   0
266      -449841 110    0 110   0
267  1.73059e+06 420    0 420   0
272 -1.37725e+06 330    0 330   0
273 -1.53886e+06 370    0 370   0
278  1.71366e+06 420    0 420   0
279       663754 170    0 170   0
284 -1.59719e+06 380    0 380   0
285  1.29991e+06 310    0 310   0
290       834904 210    0 210   0
291 -1.72468e+06 410    0 410   0
296  1.20127e+06 290    0 290   0
297  1.64062e+06 390    0 390   0
302 -1.68069e+06 410    0 410   0
303      -985328 240    0 240   0
308  1.66962e+06 400    0 400   0
309 -1.07813e+06 270    0 270   0
314 -1.09562e+06 270    0 270   0
315  1.66442e+06 400    0 400   0
320      -964977 240    0 240   0
321 -1.68473e+06 410    0 410   0
326  1.63425e+06 390    0 390   0
327  1.21686e+06 290    0 290   0
332 -1.72766e+06 410    0 410   0
333       811044 210    0 210   0
338  1.31374e+06 310    0 310   0
339 -1.58965e+06 380    0 380   0
344       673374 160    0 160   0
345  1.71552e+06 420    0 420   0
350 -1.53013e+06 370    0 370   0
351 -1.38943e+06 330    0 330   0
356  1.73138e+06 420    0 420   0
357      -403049 110    0 110   0
362 -1.44643e+06 350    0 350   0
363  1.45526e+06 360    0 360   0
368       277265  70    0  70   0
369 -1.73398e+06 420    0 420   0
374  1.40479e+06 340    0 340   0
375   1.5281e+06 360    0 360   0
380  -1.7233e+06 420    0 420   0
381      -592885 140    0 140   0
386  1.55201e+06 380    0 380   0
387 -1.33658e+06 320    0 320   0
392      -768229 190    0 190   0
393  1.74087e+06 410    0 410   0
398 -1.24836e+06 300    0 300   0
399 -1.60231e+06 390    0 390   0
404  1.70308e+06 410    0 410   0
405       903502 230    0 230   0
410 -1.63812e+06 400    0 400   0
411  1.13729e+06 280    0 280   0
416  1.03098e+06 260    0 260   0
417 -1.69356e+06 400    0 400   0
422  1.03975e+06 250    0 250   0
423  1.70145e+06 400    0 400   0
428 -1.62849e+06 400    0 400   0
429 -1.16519e+06 280    0 280   0
434  1.70902e+06 410    0 410   0
435      -906550 220    0 220   0
440 -1.27318e+06 300    0 300   0
441  1.59071e+06 390    0 390   0
446      -763434 180    0 180   0
447 -1.74501e+06 410    0 410   0
452  1.53844e+06 380    0 380   0
453  1.35852e+06 320    0 320   0
458 -1.72554e+06 420    0 420   0
459       531022 140    0 140   0
464  1.42404e+06 340    0 340   0
465 -1.51212e+06 360    0 360   0
470       178311  60    0  60   0
471  1.73441e+06 420    0 420   0
476 -1.42843e+06 350    0 350   0
477 -1.47197e+06 360    0 360   0
482  1.72999e+06 420    0 420   0
483       441898 120    0 120   0
488 -1.54484e+06 370    0 370   0
489  1.36881e+06 330    0 330   0
494       684400 170    0 170   0
495 -1.71233e+06 420    0 420   0
500  1.29035e+06 310    0 310   0
501  1.60235e+06 380    0 380   0
506 -1.72257e+06 410    0 410   0
507      -851320 210    0 210   0
512  1.64495e+06 390    0 390   0
513 -1.19049e+06 290    0 290   0
518      -999323 240    0 240   0
519  1.67785e+06 410    0 410   0
524 -1.06605e+06 270    0 270   0
525 -1.67315e+06 400    0 400   0
530   1.6608e+06 400    0 400   0
531  1.10763e+06 270    0 270   0
536 -1.68746e+06 410    0 410   0
537       950925 240    0 240   0
542  1.22757e+06 290    0 290   0
543 -1.62982e+06 390    0 390   0
548       834309 200    0 200   0
549  1.72967e+06 410    0 410   0
554  -1.5844e+06 380    0 380   0
555 -1.28188e+06 320    0 320   0
560  1.71675e+06 420    0 420   0
561      -651398 160    0 160   0
566 -1.39778e+06 330    0 330   0
567  1.52407e+06 370    0 370   0
572      -407875 100    0 100   0
573 -1.73187e+06 420    0 420   0
578  1.48977e+06 350    0 350   0
579  1.45372e+06 350    0 350   0
584 -1.73373e+06 420    0 420   0
585      -287013  80    0  80   0
590  1.49308e+06 370    0 370   0
591 -1.39688e+06 340    0 340   0
596      -576891 150    0 150   0
597  1.72232e+06 420    0 420   0
602 -1.32757e+06 320    0 320   0
603 -1.55749e+06 380    0 380   0
608  1.73912e+06 410    0 410   0
609       786546 190    0 190   0
614 -1.60697e+06 390    0 390   0
615  1.23818e+06 300    0 300   0
620       918302 230    0 230   0
621 -1.70059e+06 410    0 410   0
626  1.12586e+06 280    0 280   0
627  1.64199e+06 400    0 400   0
632 -1.69027e+06 400    0 400   0
633 -1.04368e+06 260    0 260   0
638  1.66302e+06 410    0 410   0
639 -1.02645e+06 250    0 250   0
644 -1.17653e+06 280    0 280   0
645  1.62449e+06 400    0 400   0
650      -891002 220    0 220   0
651 -1.71137e+06 410    0 410   0
656  1.58591e+06 390    0 390   0
657  1.24186e+06 310    0 310   0
