# Pulseq sequence file
# Created by PyPulseq

[VERSION]
major 1
minor 4
revision 0

[DEFINITIONS]
AdcRasterTime 1e-07 
BlockDurationRaster 1e-05 
GradientRasterTime 1e-05 
RadiofrequencyRasterTime 1e-06 
TotalDuration 3.7699 

# Format of blocks:
# NUM DUR RF  GX  GY  GZ  ADC  EXT
[BLOCKS]
   1 218   1   0   0   1  0  0
   2  72   0   0   0   2  0  0
   3 253   0   3   4   0  1  0
   4 100   0   5   6   7  0  0
   5  74   0   8   9   0  0  0
   6 758   0   0   0   0  0  1
   7 218   1   0   0   1  0  0
   8  72   0   0   0   2  0  0
   9 253   0  10  11   0  1  0
  10 100   0  12  13   7  0  0
  11  72   0  14  15   0  0  0
  12 758   0   0   0   0  0  1
  13 218   1   0   0   1  0  0
  14  72   0   0   0   2  0  0
  15 253   0  16  17   0  1  0
  16 100   0  18  19   7  0  0
  17  72   0  20  21   0  0  0
  18 758   0   0   0   0  0  1
  19 218   1   0   0   1  0  0
  20  72   0   0   0   2  0  0
  21 253   0  22  23   0  1  0
  22 100   0  24  25   7  0  0
  23  74   0  26  27   0  0  0
  24 758   0   0   0   0  0  1
  25 218   1   0   0   1  0  0
  26  72   0   0   0   2  0  0
  27 253   0  28  29   0  1  0
  28 100   0  30  31   7  0  0
  29  72   0  32  33   0  0  0
  30 758   0   0   0   0  0  1
  31 218   1   0   0   1  0  0
  32  72   0   0   0   2  0  0
  33 253   0  34  35   0  1  0
  34 100   0  36  37   7  0  0
  35  74   0  38  39   0  0  0
  36 758   0   0   0   0  0  1
  37 218   1   0   0   1  0  0
  38  72   0   0   0   2  0  0
  39 253   0  40  41   0  1  0
  40 100   0  42  43   7  0  0
  41  70   0  44  45   0  0  0
  42 758   0   0   0   0  0  1
  43 218   1   0   0   1  0  0
  44  72   0   0   0   2  0  0
  45 253   0  46  47   0  1  0
  46 100   0  48  49   7  0  0
  47  74   0  50  51   0  0  0
  48 758   0   0   0   0  0  1
  49 218   1   0   0   1  0  0
  50  72   0   0   0   2  0  0
  51 253   0  52  53   0  1  0
  52 100   0  54  55   7  0  0
  53  68   0  56  57   0  0  0
  54 758   0   0   0   0  0  1
  55 218   1   0   0   1  0  0
  56  72   0   0   0   2  0  0
  57 253   0  58  59   0  1  0
  58 100   0  60  61   7  0  0
  59  76   0  62  63   0  0  0
  60 758   0   0   0   0  0  1
  61 218   1   0   0   1  0  0
  62  72   0   0   0   2  0  0
  63 253   0  64  65   0  1  0
  64 100   0  66  67   7  0  0
  65  64   0  68  69   0  0  0
  66 758   0   0   0   0  0  1
  67 218   1   0   0   1  0  0
  68  72   0   0   0   2  0  0
  69 253   0  70  71   0  1  0
  70 100   0  72  73   7  0  0
  71  76   0  74  75   0  0  0
  72 758   0   0   0   0  0  1
  73 218   1   0   0   1  0  0
  74  72   0   0   0   2  0  0
  75 253   0  76  77   0  1  0
  76 100   0  78  79   7  0  0
  77  66   0  80  81   0  0  0
  78 758   0   0   0   0  0  1
  79 218   1   0   0   1  0  0
  80  72   0   0   0   2  0  0
  81 253   0  82  83   0  1  0
  82 100   0  84  85   7  0  0
  83  76   0  86  87   0  0  0
  84 758   0   0   0   0  0  1
  85 218   1   0   0   1  0  0
  86  72   0   0   0   2  0  0
  87 253   0  88  89   0  1  0
  88 100   0  90  91   7  0  0
  89  68   0  92  93   0  0  0
  90 758   0   0   0   0  0  1
  91 218   1   0   0   1  0  0
  92  72   0   0   0   2  0  0
  93 253   0  94  95   0  1  0
  94 100   0  96  97   7  0  0
  95  74   0  98  99   0  0  0
  96 758   0   0   0   0  0  1
  97 218   1   0   0   1  0  0
  98  72   0   0   0   2  0  0
  99 253   0 100 101   0  1  0
 100 100   0 102 103   7  0  0
 101  70   0 104 105   0  0  0
 102 758   0   0   0   0  0  1
 103 218   1   0   0   1  0  0
 104  72   0   0   0   2  0  0
 105 253   0 106 107   0  1  0
 106 100   0 108 109   7  0  0
 107  74   0 110 111   0  0  0
 108 758   0   0   0   0  0  1
 109 218   1   0   0   1  0  0
 110  72   0   0   0   2  0  0
 111 253   0 112 113   0  1  0
 112 100   0 114 115   7  0  0
 113  72   0 116 117   0  0  0
 114 758   0   0   0   0  0  1
 115 218   1   0   0   1  0  0
 116  72   0   0   0   2  0  0
 117 253   0 118 119   0  1  0
 118 100   0 120 121   7  0  0
 119  74   0 122 123   0  0  0
 120 758   0   0   0   0  0  1
 121 218   1   0   0   1  0  0
 122  72   0   0   0   2  0  0
 123 253   0 124 125   0  1  0
 124 100   0 126 127   7  0  0
 125  72   0 128 129   0  0  0
 126 758   0   0   0   0  0  1
 127 218   1   0   0   1  0  0
 128  72   0   0   0   2  0  0
 129 253   0 130 131   0  1  0
 130 100   0 132 133   7  0  0
 131  72   0 134 135   0  0  0
 132 758   0   0   0   0  0  1
 133 218   1   0   0   1  0  0
 134  72   0   0   0   2  0  0
 135 253   0 136 137   0  1  0
 136 100   0 138 139   7  0  0
 137  74   0 140 141   0  0  0
 138 758   0   0   0   0  0  1
 139 218   1   0   0   1  0  0
 140  72   0   0   0   2  0  0
 141 253   0 142 143   0  1  0
 142 100   0 144 145   7  0  0
 143  70   0 146 147   0  0  0
 144 758   0   0   0   0  0  1
 145 218   1   0   0   1  0  0
 146  72   0   0   0   2  0  0
 147 253   0 148 149   0  1  0
 148 100   0 150 151   7  0  0
 149  74   0 152 153   0  0  0
 150 758   0   0   0   0  0  1
 151 218   1   0   0   1  0  0
 152  72   0   0   0   2  0  0
 153 253   0 154 155   0  1  0
 154 100   0 156 157   7  0  0
 155  68   0 158 159   0  0  0
 156 758   0   0   0   0  0  1
 157 218   1   0   0   1  0  0
 158  72   0   0   0   2  0  0
 159 253   0 160 161   0  1  0
 160 100   0 162 163   7  0  0
 161  76   0 164 165   0  0  0
 162 758   0   0   0   0  0  1
 163 218   1   0   0   1  0  0
 164  72   0   0   0   2  0  0
 165 253   0 166 167   0  1  0
 166 100   0 168 169   7  0  0
 167  66   0 170 171   0  0  0
 168 758   0   0   0   0  0  1
 169 218   1   0   0   1  0  0
 170  72   0   0   0   2  0  0
 171 253   0 172 173   0  1  0
 172 100   0 174 175   7  0  0
 173  76   0 176 177   0  0  0
 174 758   0   0   0   0  0  1
 175 218   1   0   0   1  0  0
 176  72   0   0   0   2  0  0
 177 253   0 178 179   0  1  0
 178 100   0 180 181   7  0  0
 179  64   0 182 183   0  0  0
 180 758   0   0   0   0  0  1
 181 218   1   0   0   1  0  0
 182  72   0   0   0   2  0  0
 183 253   0 184 185   0  1  0
 184 100   0 186 187   7  0  0
 185  76   0 188 189   0  0  0
 186 758   0   0   0   0  0  1
 187 218   1   0   0   1  0  0
 188  72   0   0   0   2  0  0
 189 253   0 190 191   0  1  0
 190 100   0 192 193   7  0  0
 191  66   0 194 195   0  0  0
 192 758   0   0   0   0  0  1
 193 218   1   0   0   1  0  0
 194  72   0   0   0   2  0  0
 195 253   0 196 197   0  1  0
 196 100   0 198 199   7  0  0
 197  76   0 200 201   0  0  0
 198 758   0   0   0   0  0  1
 199 218   1   0   0   1  0  0
 200  72   0   0   0   2  0  0
 201 253   0 202 203   0  1  0
 202 100   0 204 205   7  0  0
 203  68   0 206 207   0  0  0
 204 758   0   0   0   0  0  1
 205 218   1   0   0   1  0  0
 206  72   0   0   0   2  0  0
 207 253   0 208 209   0  1  0
 208 100   0 210 211   7  0  0
 209  74   0 212 213   0  0  0
 210 758   0   0   0   0  0  1
 211 218   1   0   0   1  0  0
 212  72   0   0   0   2  0  0
 213 253   0 214 215   0  1  0
 214 100   0 216 217   7  0  0
 215  70   0 218 219   0  0  0
 216 758   0   0   0   0  0  1
 217 218   1   0   0   1  0  0
 218  72   0   0   0   2  0  0
 219 253   0 220 221   0  1  0
 220 100   0 222 223   7  0  0
 221  74   0 224 225   0  0  0
 222 758   0   0   0   0  0  1
 223 218   1   0   0   1  0  0
 224  72   0   0   0   2  0  0
 225 253   0 226 227   0  1  0
 226 100   0 228 229   7  0  0
 227  72   0 230 231   0  0  0
 228 758   0   0   0   0  0  1
 229 218   1   0   0   1  0  0
 230  72   0   0   0   2  0  0
 231 253   0 232 233   0  1  0
 232 100   0 234 235   7  0  0
 233  72   0 236 237   0  0  0
 234 758   0   0   0   0  0  1
 235 218   1   0   0   1  0  0
 236  72   0   0   0   2  0  0
 237 253   0 238 239   0  1  0
 238 100   0 240 241   7  0  0
 239  74   0 242 243   0  0  0
 240 758   0   0   0   0  0  1
 241 218   1   0   0   1  0  0
 242  72   0   0   0   2  0  0
 243 253   0 244 245   0  1  0
 244 100   0 246 247   7  0  0
 245  70   0 248 249   0  0  0
 246 758   0   0   0   0  0  1
 247 218   1   0   0   1  0  0
 248  72   0   0   0   2  0  0
 249 253   0 250 251   0  1  0
 250 100   0 252 253   7  0  0
 251  74   0 254 255   0  0  0
 252 758   0   0   0   0  0  1
 253 218   1   0   0   1  0  0
 254  72   0   0   0   2  0  0
 255 253   0 256 257   0  1  0
 256 100   0 258 259   7  0  0
 257  70   0 260 261   0  0  0
 258 758   0   0   0   0  0  1
 259 218   1   0   0   1  0  0
 260  72   0   0   0   2  0  0
 261 253   0 262 263   0  1  0
 262 100   0 264 265   7  0  0
 263  74   0 266 267   0  0  0
 264 758   0   0   0   0  0  1
 265 218   1   0   0   1  0  0
 266  72   0   0   0   2  0  0
 267 253   0 268 269   0  1  0
 268 100   0 270 271   7  0  0
 269  68   0 272 273   0  0  0
 270 758   0   0   0   0  0  1
 271 218   1   0   0   1  0  0
 272  72   0   0   0   2  0  0
 273 253   0 274 275   0  1  0
 274 100   0 276 277   7  0  0
 275  76   0 278 279   0  0  0
 276 758   0   0   0   0  0  1
 277 218   1   0   0   1  0  0
 278  72   0   0   0   2  0  0
 279 253   0 280 281   0  1  0
 280 100   0 282 283   7  0  0
 281  64   0 284 285   0  0  0
 282 758   0   0   0   0  0  1
 283 218   1   0   0   1  0  0
 284  72   0   0   0   2  0  0
 285 253   0 286 287   0  1  0
 286 100   0 288 289   7  0  0
 287  76   0 290 291   0  0  0
 288 758   0   0   0   0  0  1
 289 218   1   0   0   1  0  0
 290  72   0   0   0   2  0  0
 291 253   0 292 293   0  1  0
 292 100   0 294 295   7  0  0
 293  66   0 296 297   0  0  0
 294 758   0   0   0   0  0  1
 295 218   1   0   0   1  0  0
 296  72   0   0   0   2  0  0
 297 253   0 298 299   0  1  0
 298 100   0 300 301   7  0  0
 299  76   0 302 303   0  0  0
 300 758   0   0   0   0  0  1
 301 218   1   0   0   1  0  0
 302  72   0   0   0   2  0  0
 303 253   0 304 305   0  1  0
 304 100   0 306 307   7  0  0
 305  68   0 308 309   0  0  0
 306 758   0   0   0   0  0  1
 307 218   1   0   0   1  0  0
 308  72   0   0   0   2  0  0
 309 253   0 310 311   0  1  0
 310 100   0 312 313   7  0  0
 311  74   0 314 315   0  0  0
 312 758   0   0   0   0  0  1
 313 218   1   0   0   1  0  0
[RF]
1      57.7792 1 2 0 130 0 0

# Format of arbitrary gradients:
#   time_shape_id of 0 means default timing (stepping with grad_raster starting at 1/2 of grad_raster)
# id amplitude amp_shape_id time_shape_id delay
# ..      Hz/m       ..         ..          us
[GRADIENTS]
3      -390691 3 0 0
4      -390760 4 0 0
5       127541 5 6 0
6       369253 5 6 0
10       390716 7 0 0
11      -390722 8 0 0
12      -343472 9 6 0
13      -186124 9 6 0
16      -390757 10 0 0
17       390690 11 0 0
18       378990 5 6 0
19     -94770.1 9 6 0
22      -390735 12 0 0
23      -390704 13 0 0
24      -215439 9 6 0
25       325885 5 6 0
28       390697 14 0 0
29       390732 15 0 0
30     -61273.8 9 6 0
31      -385824 9 6 0
34      -390693 16 0 0
35       390735 17 0 0
36       305802 5 6 0
37       243105 5 6 0
40       390743 18 0 0
41      -390703 19 0 0
42      -389704 9 6 0
43      27308.2 5 6 0
46       390739 20 0 0
47       390677 21 0 0
48       268909 5 6 0
49      -283377 9 6 0
52      -390704 22 0 0
53      -390750 23 0 0
54     -6866.51 9 6 0
55       390599 5 6 0
58       390679 24 0 0
59      -390748 25 0 0
60      -258783 9 6 0
61      -292654 9 6 0
64      -390736 26 0 0
65       390705 27 0 0
66       388503 5 6 0
67      40988.6 5 6 0
70      -390736 28 0 0
71      -390680 29 0 0
72      -314158 9 6 0
73       232206 5 6 0
76       390712 30 0 0
77       390703 31 0 0
78      74796.8 5 6 0
79      -383432 9 6 0
82      -390682 32 0 0
83       390754 33 0 0
84       203852 5 6 0
85       333255 5 6 0
88       390735 34 0 0
89      -390719 35 0 0
90      -375425 9 6 0
91      -108032 9 6 0
94       390738 36 0 0
95       390682 37 0 0
96       349801 5 6 0
97      -173936 9 6 0
100      -390722 38 0 0
101      -390734 39 0 0
102      -140440 9 6 0
103       364542 5 6 0
106       390685 40 0 0
107      -390721 41 0 0
108      -142689 9 6 0
109      -363668 9 6 0
112      -390719 42 0 0
113       390712 43 0 0
114       350869 5 6 0
115       171773 5 6 0
118       390721 44 0 0
119      -390691 45 0 0
120      -374751 9 6 0
121       110348 5 6 0
124       390733 46 0 0
125       390704 47 0 0
126       201790 5 6 0
127      -334508 9 6 0
130      -390696 48 0 0
131      -390742 49 0 0
132      77162.8 5 6 0
133       382963 5 6 0
136       390694 50 0 0
137      -390731 51 0 0
138      -315585 9 6 0
139      -230262 9 6 0
142      -390761 52 0 0
143       390701 53 0 0
144       388243 5 6 0
145     -43386.6 9 6 0
148      -390730 54 0 0
149      -390685 55 0 0
150      -256971 9 6 0
151       294246 5 6 0
154       390705 56 0 0
155       390728 57 0 0
156     -9278.06 9 6 0
157      -390549 9 6 0
160      -390677 58 0 0
161       390740 59 0 0
162       270654 5 6 0
163       281712 5 6 0
166       390752 60 0 0
167      -390706 61 0 0
168      -389865 9 6 0
169     -24901.5 9 6 0
172       390750 62 0 0
173       390680 63 0 0
174       304295 5 6 0
175      -244988 9 6 0
178      -390711 64 0 0
179      -390684 65 0 0
180     -58890.4 9 6 0
181       386195 5 6 0
184       390682 66 0 0
185      -390725 67 0 0
186      -217447 9 6 0
187      -324548 9 6 0
190      -390733 68 0 0
191       390704 69 0 0
192       379568 5 6 0
193      92428.3 5 6 0
196      -390753 70 0 0
197      -390685 71 0 0
198      -342316 9 6 0
199       188241 5 6 0
202       390707 72 0 0
203       390738 73 0 0
204       125258 5 6 0
205      -370034 9 6 0
208      -390686 74 0 0
209       390759 75 0 0
210       157593 5 6 0
211       357462 5 6 0
214       390723 76 0 0
215      -390720 77 0 0
216      -357666 9 6 0
217      -157129 9 6 0
220      -390760 78 0 0
221       390692 79 0 0
222       369871 5 6 0
223      -125738 9 6 0
226      -390730 80 0 0
227      -390704 81 0 0
228      -187797 9 6 0
229       342560 5 6 0
232       390694 82 0 0
233       390762 83 0 0
234     -92920.2 9 6 0
235      -379448 9 6 0
238      -390691 84 0 0
239       390729 85 0 0
240       324830 5 6 0
241       217026 5 6 0
244       390751 86 0 0
245      -390699 87 0 0
246      -386118 9 6 0
247      59390.9 5 6 0
250       390721 88 0 0
251       390684 89 0 0
252       244594 5 6 0
253      -304612 9 6 0
256      -390702 90 0 0
257      -390721 91 0 0
258      25406.8 5 6 0
259       389832 5 6 0
262       390677 92 0 0
263      -390726 93 0 0
264      -282062 9 6 0
265      -270288 9 6 0
268      -390757 94 0 0
269       390707 95 0 0
270       390561 5 6 0
271      8771.88 5 6 0
274      -390743 96 0 0
275      -390675 97 0 0
276      -293913 9 6 0
277       257352 5 6 0
280       390706 98 0 0
281       390713 99 0 0
282      42883.4 5 6 0
283      -388299 9 6 0
286      -390681 100 0 0
287       390749 101 0 0
288       230671 5 6 0
289       315287 5 6 0
292       390727 102 0 0
293      -390716 103 0 0
294      -383063 9 6 0
295     -76666.4 9 6 0
298       390746 104 0 0
299       390683 105 0 0
300       334246 5 6 0
301      -202224 9 6 0
304      -390718 106 0 0
305      -390741 107 0 0
306      -109862 9 6 0
307       374893 5 6 0
310       390688 108 0 0
311      -390728 109 0 0
312      -172228 9 6 0
313      -350646 9 6 0
316      -390727 110 0 0
317       390724 111 0 0
318       363853 5 6 0
319       142217 5 6 0
322      -390742 112 0 0
323      -390691 113 0 0
324      -364360 9 6 0
325       140913 5 6 0
328       390725 114 0 0
329       390705 115 0 0
330       173483 5 6 0
331      -350026 9 6 0
334      -390691 116 0 0
335      -390738 117 0 0
336       108519 5 6 0
337       375284 5 6 0
340       390687 118 0 0
341      -390729 119 0 0
342      -333519 9 6 0
343      -203420 9 6 0
346      -390718 120 0 0
347       390697 121 0 0
348       383335 5 6 0
349     -75293.7 9 6 0
352      -390717 122 0 0
353      -390678 123 0 0
354      -231799 9 6 0
355       314458 5 6 0
358       390696 124 0 0
359       390754 125 0 0
360     -41492.1 9 6 0
361      -388450 9 6 0
364      -390675 126 0 0
365       390725 127 0 0
366       292989 5 6 0
367       258403 5 6 0
370       390747 128 0 0
371      -390701 129 0 0
372      -390590 9 6 0
373      7372.74 5 6 0
376       390725 130 0 0
377       390675 131 0 0
378       283029 5 6 0
379      -269276 9 6 0
382      -390709 132 0 0
383      -390739 133 0 0
384     -26803.1 9 6 0
385       389739 5 6 0
388       390676 134 0 0
389      -390748 135 0 0
390      -243501 9 6 0
391      -305486 9 6 0
394      -390715 136 0 0
395       390702 137 0 0
396       385903 5 6 0
397      60773.7 5 6 0
400      -390740 138 0 0
401      -390682 139 0 0
402      -325605 9 6 0
403       215861 5 6 0
406       390715 140 0 0
407       390743 141 0 0
408      94278.8 5 6 0
409      -379112 9 6 0
412      -390681 142 0 0
413       390757 143 0 0
414       186569 5 6 0
415       343230 5 6 0
418       390732 144 0 0
419      -390720 145 0 0
420      -369418 9 6 0
421      -127062 9 6 0
424       390752 146 0 0
425       390687 147 0 0
426       358227 5 6 0
427      -155847 9 6 0
430      -390715 148 0 0
431      -390707 149 0 0
432      -158872 9 6 0
433       356895 5 6 0
436       390686 150 0 0
437       390750 151 0 0
438      -123932 9 6 0
439      -370480 9 6 0
442      -390683 152 0 0
443       390730 153 0 0
444       341639 5 6 0
445       189466 5 6 0
448       390757 154 0 0
449      -390696 155 0 0
450      -379897 9 6 0
451        91068 5 6 0
454       390717 156 0 0
455       390672 157 0 0
456       218608 5 6 0
457      -323767 9 6 0
460      -390691 158 0 0
461      -390760 159 0 0
462      57506.6 5 6 0
463       386404 5 6 0
466       390669 160 0 0
467      -390731 161 0 0
468      -303415 9 6 0
469      -246077 9 6 0
472      -390718 162 0 0
473       390695 163 0 0
474       389952 5 6 0
475     -23504.8 9 6 0
478      -390732 164 0 0
479      -390676 165 0 0
480      -271661 9 6 0
481       280740 5 6 0
484       390701 166 0 0
485       390755 167 0 0
486        10677 5 6 0
487      -390513 9 6 0
490      -390679 168 0 0
491       390728 169 0 0
492       255915 5 6 0
493       295165 5 6 0
496       390693 170 0 0
497      -390712 171 0 0
498      -388085 9 6 0
499     -44777.1 9 6 0
502       390752 172 0 0
503       390678 173 0 0
504       316408 5 6 0
505      -229130 9 6 0
508      -390710 174 0 0
509      -390742 175 0 0
510     -78534.2 9 6 0
511       382684 5 6 0
514       390684 176 0 0
515      -390728 177 0 0
516      -200591 9 6 0
517      -335228 9 6 0
520      -390738 178 0 0
521       390708 179 0 0
522       374353 5 6 0
523       111690 5 6 0
526      -390747 180 0 0
527      -390684 181 0 0
528      -351482 9 6 0
529       170515 5 6 0
532       390717 182 0 0
533       390711 183 0 0
534       143990 5 6 0
535      -363155 9 6 0
538      -390687 184 0 0
539       390756 185 0 0
540       139134 5 6 0
541       365043 5 6 0
544       390681 186 0 0
545      -390729 187 0 0
546      -349176 9 6 0
547      -175188 9 6 0
550      -390754 188 0 0
551       390694 189 0 0
552       375809 5 6 0
553      -106687 9 6 0
556      -390715 190 0 0
557      -390669 191 0 0
558      -205044 9 6 0
559       332523 5 6 0
562       390689 192 0 0
563       390735 193 0 0
564     -73422.8 9 6 0
565      -383698 9 6 0
568      -390669 194 0 0
569       390732 195 0 0
570       313324 5 6 0
571       233330 5 6 0
574       390737 196 0 0
575      -390698 197 0 0
576      -388647 9 6 0
577      39596.6 5 6 0
580       390739 198 0 0
581       390675 199 0 0
582       259829 5 6 0
583      -291725 9 6 0
586      -390700 200 0 0
587      -390757 201 0 0
588      5467.25 5 6 0
589       390621 5 6 0
592       390678 202 0 0
593      -390735 203 0 0
594      -267892 9 6 0
595      -284339 9 6 0
598      -390717 204 0 0
599       390704 205 0 0
600       389603 5 6 0
601        28704 5 6 0
604      -390736 206 0 0
605      -390681 207 0 0
606      -306671 9 6 0
607       242008 5 6 0
610       390712 208 0 0
611       390736 209 0 0
612      62655.5 5 6 0
613      -385602 9 6 0
616      -390680 210 0 0
617       390752 211 0 0
618       214270 5 6 0
619       326654 5 6 0
622       390744 212 0 0
623      -390718 213 0 0
624      -378648 9 6 0
625     -96127.1 9 6 0
628       390751 214 0 0
629       390686 215 0 0
630       344136 5 6 0
631      -184892 9 6 0
634      -390722 216 0 0
635      -390718 217 0 0
636      -128863 9 6 0
637       368794 5 6 0
640       390689 218 0 0
641      -390737 219 0 0
642      -154098 9 6 0
643      -358983 9 6 0
646      -390682 220 0 0
647       390725 221 0 0
648       356116 5 6 0
649       160611 5 6 0
652       390731 222 0 0
653      -390693 223 0 0
654      -371080 9 6 0
655       122123 5 6 0
658       390719 224 0 0
659       390665 225 0 0
660       191130 5 6 0
661      -340711 9 6 0
664      -390688 226 0 0
665      -390744 227 0 0
666      89213.7 5 6 0
667       380336 5 6 0
670       390669 228 0 0
671      -390731 229 0 0
672      -322697 9 6 0
673      -220185 9 6 0
676      -390760 230 0 0
677       390699 231 0 0
678       386680 5 6 0
679     -55620.9 9 6 0
682      -390740 232 0 0
683      -390674 233 0 0
684      -247554 9 6 0
685       302211 5 6 0
688       390703 234 0 0
689       390741 235 0 0
690     -21602.2 9 6 0
691      -390062 9 6 0
694      -390675 236 0 0
695       390743 237 0 0
696       279412 5 6 0
697       273027 5 6 0
700       390744 238 0 0
701      -390704 239 0 0
702      -390457 9 6 0
703     -12581.9 9 6 0
706       390734 240 0 0
707       390677 241 0 0
708       296410 5 6 0
709      -254472 9 6 0
712      -390708 242 0 0
713      -390722 243 0 0
714     -46669.7 9 6 0
715       387862 5 6 0
718       390682 244 0 0
719      -390746 245 0 0
720      -227584 9 6 0
721      -317522 9 6 0
724      -390748 246 0 0
725       390708 247 0 0
726       382296 5 6 0
727      80400.1 5 6 0
730      -390739 248 0 0
731      -390679 249 0 0
732      -336203 9 6 0
733       198953 5 6 0
736       390716 250 0 0
737       390726 251 0 0
738       113515 5 6 0
739      -373804 9 6 0
742      -390686 252 0 0
743       390757 253 0 0
744       168798 5 6 0
745       352309 5 6 0
748       390686 254 0 0
749      -390715 255 0 0
750      -362448 9 6 0
751      -145760 9 6 0
754       390760 256 0 0
755       390689 257 0 0
756       365718 5 6 0
757      -137351 9 6 0
760      -390724 258 0 0
761      -390668 259 0 0
762      -176889 9 6 0
763       348317 5 6 0
766       390689 260 0 0
767       390761 261 0 0
768      -104852 9 6 0
769      -376325 9 6 0
772      -390670 262 0 0
773       390728 263 0 0
774       331519 5 6 0
775       206664 5 6 0
778       390753 264 0 0
779      -390698 265 0 0
780      -384051 9 6 0
781      71550.2 5 6 0
784       390738 266 0 0
785       390673 267 0 0
786       234856 5 6 0
787      -312182 9 6 0
790      -390702 268 0 0
791      -390711 269 0 0
792      37700.2 5 6 0
793       388836 5 6 0
796       390673 270 0 0
797      -390743 271 0 0
798      -290454 9 6 0
799      -261249 9 6 0
802      -390758 272 0 0
803       390706 273 0 0
804       390643 5 6 0
805     -3561.62 9 6 0
808      -390745 274 0 0
809      -390673 275 0 0
810      -285642 9 6 0
811       266502 5 6 0
814       390705 276 0 0
815       390698 277 0 0
816      30604.3 5 6 0
817      -389459 9 6 0
820      -390676 278 0 0
821       390727 279 0 0
822       240509 5 6 0
823       307848 5 6 0
826       390748 280 0 0
827      -390713 281 0 0
828      -385292 9 6 0
829     -64535.8 9 6 0
832       390754 282 0 0
833       390684 283 0 0
834       327696 5 6 0
835      -212674 9 6 0
838      -390712 284 0 0
839      -390735 285 0 0
840     -97973.1 9 6 0
841       378175 5 6 0
844       390682 286 0 0
845      -390737 287 0 0
846      -183211 9 6 0
847      -345034 9 6 0
850      -390694 288 0 0
851       390716 289 0 0
852       368161 5 6 0
853       130660 5 6 0
856      -390729 290 0 0
857      -390683 291 0 0
858      -359730 9 6 0
859       152345 5 6 0
862       390727 292 0 0
863       390668 293 0 0
864       162347 5 6 0
865      -355328 9 6 0
868      -390690 294 0 0
869      -390731 295 0 0
870       120312 5 6 0
871       371672 5 6 0
874       390670 296 0 0
875      -390723 297 0 0
876      -339775 9 6 0
877      -192790 9 6 0
880      -390721 298 0 0
881       390696 299 0 0
882       380767 5 6 0
883     -87357.2 9 6 0
886      -390736 300 0 0
887      -390672 301 0 0
888      -221757 9 6 0
889       321619 5 6 0
892       390699 302 0 0
893       390751 303 0 0
894     -53733.9 9 6 0
895      -386946 9 6 0
898      -390671 304 0 0
899       390739 305 0 0
900       301000 5 6 0
901       249025 5 6 0
904       390755 306 0 0
905      -390702 307 0 0
906      -390162 9 6 0
907      19699.1 5 6 0
910       390744 308 0 0
911       390675 309 0 0
912       274387 5 6 0
913      -278076 9 6 0
916      -390708 310 0 0
917      -390723 311 0 0
918     -14486.5 9 6 0
919       390391 5 6 0
922       390678 312 0 0
923      -390746 313 0 0
924      -253023 9 6 0
925      -297647 9 6 0
928      -390741 314 0 0
929       390703 315 0 0
930       387629 5 6 0
931      48561.3 5 6 0
934      -390731 316 0 0
935      -390676 317 0 0
936      -318629 9 6 0
937       226032 5 6 0
940       390716 318 0 0
941       390744 319 0 0
942      82264.1 5 6 0
943      -381900 9 6 0
946      -390685 320 0 0
947       390752 321 0 0
948       197311 5 6 0
949       337170 5 6 0
952       390705 322 0 0
953      -390721 323 0 0
954      -373245 9 6 0
955      -115337 9 6 0
958       390758 324 0 0
959       390687 325 0 0
960       353129 5 6 0
961      -167078 9 6 0
964      -390724 326 0 0
965      -390664 327 0 0
966      -147527 9 6 0
967       361733 5 6 0
970       390691 328 0 0
971      -390756 329 0 0
972      -135565 9 6 0
973      -366383 9 6 0
976      -390668 330 0 0
977       390714 331 0 0
978       347450 5 6 0
979       178586 5 6 0
982       390759 332 0 0
983      -390693 333 0 0
984      -376832 9 6 0
985       103015 5 6 0
988       390734 334 0 0
989       390669 335 0 0
990       208279 5 6 0
991      -330507 9 6 0
994      -390697 336 0 0
995      -390761 337 0 0
996      69675.8 5 6 0
997       384396 5 6 0
1000       390670 338 0 0
1001      -390735 339 0 0
1002      -311032 9 6 0
1003      -236376 9 6 0
1006      -390731 340 0 0
1007       390696 341 0 0
1008       389015 5 6 0
1009     -35802.9 9 6 0
1012      -390738 342 0 0
1013      -390675 343 0 0
1014      -262663 9 6 0
1015       289176 5 6 0
1018       390702 344 0 0
1019       390749 345 0 0
1020     -1655.92 9 6 0
1021      -390656 9 6 0
1024      -390678 346 0 0
1025       390746 347 0 0
1026       265105 5 6 0
1027       286939 5 6 0
1030       390726 348 0 0
1031      -390710 349 0 0
1032      -389305 9 6 0
1033     -32503.8 9 6 0
1036       390744 350 0 0
1037       390680 351 0 0
1038       309017 5 6 0
1039      -239004 9 6 0
1042      -390705 352 0 0
1043      -390750 353 0 0
1044     -66414.6 9 6 0
1045       384973 5 6 0
1048       390678 354 0 0
1049      -390747 355 0 0
1050      -211073 9 6 0
1051      -328729 9 6 0
1054      -390717 356 0 0
1055       390711 357 0 0
1056       377692 5 6 0
1057      99816.8 5 6 0
1060      -390730 358 0 0
1061      -390686 359 0 0
1062      -345924 9 6 0
1063       181526 5 6 0
1066       390713 360 0 0
1067       390666 361 0 0
1068       132455 5 6 0
1069      -367519 9 6 0
1072      -390689 362 0 0
1073       390748 363 0 0
1074       150588 5 6 0
1075       360469 5 6 0
1078       390671 364 0 0
1079      -390719 365 0 0
1080      -354532 9 6 0
1081      -164078 9 6 0
1084      -390750 366 0 0
1085       390689 367 0 0
1086       372254 5 6 0
1087      -118497 9 6 0
1090      -390731 368 0 0
1091      -390669 369 0 0
1092      -194445 9 6 0
1093       338830 5 6 0
1096       390695 370 0 0
1097       390735 371 0 0
1098     -85498.7 9 6 0
1099      -381189 9 6 0
1102      -390670 372 0 0
1103       390732 373 0 0
1104       320533 5 6 0
1105       223323 5 6 0
1108       390733 374 0 0
1109      -390691 375 0 0
1110      -387204 9 6 0
1111      51845.6 5 6 0
1114       390729 376 0 0
1115       390674 377 0 0
1116       250491 5 6 0
1117      -299782 9 6 0
1120      -390695 378 0 0
1121      -390760 379 0 0
1122      17795.6 5 6 0
1123       390254 5 6 0
1126       390676 380 0 0
1127      -390737 381 0 0
1128      -276735 9 6 0
1129      -275740 9 6 0
1132      -390698 382 0 0
1133       390703 383 0 0
1134       390315 5 6 0
1135      16390.8 5 6 0
1138      -390749 384 0 0
1139      -390679 385 0 0
1140      -298878 9 6 0
1141       251568 5 6 0
1144       390712 386 0 0
1145       390751 387 0 0
1146      50451.7 5 6 0
1147      -387388 9 6 0
1150      -390682 388 0 0
1151       390734 389 0 0
1152       224475 5 6 0
1153       319727 5 6 0
1156       390731 390 0 0
1157      -390715 391 0 0
1158      -381494 9 6 0
1159     -84126.1 9 6 0
1162       390756 392 0 0
1163       390682 393 0 0
1164       338128 5 6 0
1165      -195663 9 6 0
1168      -390716 394 0 0
1169      -390674 395 0 0
1170      -117156 9 6 0
1171       372678 5 6 0
1174       390682 396 0 0
1175      -390749 397 0 0
1176      -165353 9 6 0
1177      -353939 9 6 0
1180      -390680 398 0 0
1181       390724 399 0 0
1182       361009 5 6 0
1183       149289 5 6 0
1186      -390742 400 0 0
1187      -390684 401 0 0
1188      -367040 9 6 0
1189       133777 5 6 0
1192       390727 402 0 0
1193       390686 403 0 0
1194       180279 5 6 0
1195      -346575 9 6 0
1198      -390694 404 0 0
1199      -390747 405 0 0
1200       101176 5 6 0
1201       377330 5 6 0
1204       390676 406 0 0
1205      -390731 407 0 0
1206      -329487 9 6 0
1207      -209889 9 6 0
1210      -390760 408 0 0
1211       390691 409 0 0
1212       384731 5 6 0
1213     -67799.8 9 6 0
1216      -390723 410 0 0
1217      -390673 411 0 0
1218      -237891 9 6 0
1219       309875 5 6 0
1222       390699 412 0 0
1223       390750 413 0 0
1224     -33904.8 9 6 0
1225      -389185 9 6 0
1228      -390674 414 0 0
1229       390723 415 0 0
1230       287891 5 6 0
1231       264071 5 6 0
1234       390731 416 0 0
1235      -390700 417 0 0
