# Pulseq sequence file
# Created by PyPulseq

[VERSION]
major 1
minor 4
revision 0

[DEFINITIONS]
AdcRasterTime 1e-07 
BlockDurationRaster 1e-05 
FOV 0.256 0.256 0.008 
Flipangle 15 
GradientRasterTime 1e-05 
RadiofrequencyRasterTime 1e-06 
TE 0.00232 
TR 0.0047 
TotalDuration 1.89342 
delta 1.94161107 
name 20240319_radial_2D_256mm_402spokes_golden_angle 
number_of_readouts 256 
number_of_spokes 402 
sampling_scheme radial 

# Format of blocks:
# NUM DUR RF  GX  GY  GZ  ADC  EXT
[BLOCKS]
   1 148   1   0   0   1  0  0
   2  88   0   3   0   2  0  0
   3 138   0   4   0   0  1  0
   4  88   0   3   0   5  0  1
   5   9   0   0   0   0  0  0
   6 148   2   0   0   1  0  0
   7  88   0   6   7   2  0  0
   8 138   0   8   9   0  2  0
   9  88   0   6   7   5  0  1
  10   9   0   0   0   0  0  0
  11 148   3   0   0   1  0  0
  12  88   0  10  11   2  0  0
  13 138   0  12  13   0  3  0
  14  88   0  10  11   5  0  1
  15   9   0   0   0   0  0  0
  16 148   4   0   0   1  0  0
  17  88   0  14  15   2  0  0
  18 138   0  16  17   0  4  0
  19  88   0  14  15   5  0  1
  20   9   0   0   0   0  0  0
  21 148   5   0   0   1  0  0
  22  88   0  18  19   2  0  0
  23 138   0  20  21   0  5  0
  24  88   0  18  19   5  0  1
  25   9   0   0   0   0  0  0
  26 148   6   0   0   1  0  0
  27  88   0  22  23   2  0  0
  28 138   0  24  25   0  6  0
  29  88   0  22  23   5  0  1
  30   9   0   0   0   0  0  0
  31 148   7   0   0   1  0  0
  32  88   0  26  27   2  0  0
  33 138   0  28  29   0  7  0
  34  88   0  26  27   5  0  1
  35   9   0   0   0   0  0  0
  36 148   8   0   0   1  0  0
  37  88   0  30  31   2  0  0
  38 138   0  32  33   0  8  0
  39  88   0  30  31   5  0  1
  40   9   0   0   0   0  0  0
  41 148   9   0   0   1  0  0
  42  88   0  34  35   2  0  0
  43 138   0  36  37   0  9  0
  44  88   0  34  35   5  0  1
  45   9   0   0   0   0  0  0
  46 148  10   0   0   1  0  0
  47  88   0  38  39   2  0  0
  48 138   0  40  41   0 10  0
  49  88   0  38  39   5  0  1
  50   9   0   0   0   0  0  0
  51 148   6   0   0   1  0  0
  52  88   0  42  43   2  0  0
  53 138   0  44  45   0  6  0
  54  88   0  42  43   5  0  1
  55   9   0   0   0   0  0  0
  56 148  11   0   0   1  0  0
  57  88   0  46  47   2  0  0
  58 138   0  48  49   0 11  0
  59  88   0  46  47   5  0  1
  60   9   0   0   0   0  0  0
  61 148  12   0   0   1  0  0
  62  88   0  50  51   2  0  0
  63 138   0  52  53   0 12  0
  64  88   0  50  51   5  0  1
  65   9   0   0   0   0  0  0
  66 148  13   0   0   1  0  0
  67  88   0  54  55   2  0  0
  68 138   0  56  57   0 13  0
  69  88   0  54  55   5  0  1
  70   9   0   0   0   0  0  0
  71 148  14   0   0   1  0  0
  72  88   0  58  59   2  0  0
  73 138   0  60  61   0 14  0
  74  88   0  58  59   5  0  1
  75   9   0   0   0   0  0  0
  76 148   1   0   0   1  0  0
  77  88   0  62  63   2  0  0
  78 138   0  64  65   0  1  0
  79  88   0  62  63   5  0  1
  80   9   0   0   0   0  0  0
  81 148  15   0   0   1  0  0
  82  88   0  66  67   2  0  0
  83 138   0  68  69   0 15  0
  84  88   0  66  67   5  0  1
  85   9   0   0   0   0  0  0
  86 148  16   0   0   1  0  0
  87  88   0  70  71   2  0  0
  88 138   0  72  73   0 16  0
  89  88   0  70  71   5  0  1
  90   9   0   0   0   0  0  0
  91 148  13   0   0   1  0  0
  92  88   0  74  75   2  0  0
  93 138   0  76  77   0 13  0
  94  88   0  74  75   5  0  1
  95   9   0   0   0   0  0  0
  96 148  17   0   0   1  0  0
  97  88   0  78  79   2  0  0
  98 138   0  80  81   0 17  0
  99  88   0  78  79   5  0  1
 100   9   0   0   0   0  0  0
 101 148   5   0   0   1  0  0
 102  88   0  82  83   2  0  0
 103 138   0  84  85   0  5  0
 104  88   0  82  83   5  0  1
 105   9   0   0   0   0  0  0
 106 148  18   0   0   1  0  0
 107  88   0  86  87   2  0  0
 108 138   0  88  89   0 18  0
 109  88   0  86  87   5  0  1
 110   9   0   0   0   0  0  0
 111 148  19   0   0   1  0  0
 112  88   0  90  91   2  0  0
 113 138   0  92  93   0 19  0
 114  88   0  90  91   5  0  1
 115   9   0   0   0   0  0  0
 116 148   9   0   0   1  0  0
 117  88   0  94  95   2  0  0
 118 138   0  96  97   0  9  0
 119  88   0  94  95   5  0  1
 120   9   0   0   0   0  0  0
 121 148  20   0   0   1  0  0
 122  88   0  98  99   2  0  0
 123 138   0 100 101   0 20  0
 124  88   0  98  99   5  0  1
 125   9   0   0   0   0  0  0
 126 148  10   0   0   1  0  0
 127  88   0 102 103   2  0  0
 128 138   0 104 105   0 10  0
 129  88   0 102 103   5  0  1
 130   9   0   0   0   0  0  0
 131 148  18   0   0   1  0  0
 132  88   0 106 107   2  0  0
 133 138   0 108 109   0 18  0
 134  88   0 106 107   5  0  1
 135   9   0   0   0   0  0  0
 136 148  21   0   0   1  0  0
 137  88   0 110 111   2  0  0
 138 138   0 112 113   0 21  0
 139  88   0 110 111   5  0  1
 140   9   0   0   0   0  0  0
 141 148   4   0   0   1  0  0
 142  88   0 114 115   2  0  0
 143 138   0 116 117   0  4  0
 144  88   0 114 115   5  0  1
 145   9   0   0   0   0  0  0
 146 148  22   0   0   1  0  0
 147  88   0 118 119   2  0  0
 148 138   0 120 121   0 22  0
 149  88   0 118 119   5  0  1
 150   9   0   0   0   0  0  0
 151 148  14   0   0   1  0  0
 152  88   0 122 123   2  0  0
 153 138   0 124 125   0 14  0
 154  88   0 122 123   5  0  1
 155   9   0   0   0   0  0  0
 156 148  15   0   0   1  0  0
 157  88   0 126 127   2  0  0
 158 138   0 128 129   0 15  0
 159  88   0 126 127   5  0  1
 160   9   0   0   0   0  0  0
 161 148  23   0   0   1  0  0
 162  88   0 130 131   2  0  0
 163 138   0 132 133   0 23  0
 164  88   0 130 131   5  0  1
 165   9   0   0   0   0  0  0
 166 148   2   0   0   1  0  0
 167  88   0 134 135   2  0  0
 168 138   0 136 137   0  2  0
 169  88   0 134 135   5  0  1
 170   9   0   0   0   0  0  0
 171 148  22   0   0   1  0  0
 172  88   0 138 139   2  0  0
 173 138   0 140 141   0 22  0
 174  88   0 138 139   5  0  1
 175   9   0   0   0   0  0  0
 176 148  17   0   0   1  0  0
 177  88   0 142 143   2  0  0
 178 138   0 144 145   0 17  0
 179  88   0 142 143   5  0  1
 180   9   0   0   0   0  0  0
 181 148  11   0   0   1  0  0
 182  88   0 146 147   2  0  0
 183 138   0 148 149   0 11  0
 184  88   0 146 147   5  0  1
 185   9   0   0   0   0  0  0
 186 148  24   0   0   1  0  0
 187  88   0 150 151   2  0  0
 188 138   0 152 153   0 24  0
 189  88   0 150 151   5  0  1
 190   9   0   0   0   0  0  0
 191 148   7   0   0   1  0  0
 192  88   0 154 155   2  0  0
 193 138   0 156 157   0  7  0
 194  88   0 154 155   5  0  1
 195   9   0   0   0   0  0  0
 196 148  20   0   0   1  0  0
 197  88   0 158 159   2  0  0
 198 138   0 160 161   0 20  0
 199  88   0 158 159   5  0  1
 200   9   0   0   0   0  0  0
 201 148  20   0   0   1  0  0
 202  88   0 162 163   2  0  0
 203 138   0 164 165   0 20  0
 204  88   0 162 163   5  0  1
 205   9   0   0   0   0  0  0
 206 148   7   0   0   1  0  0
 207  88   0 166 167   2  0  0
 208 138   0 168 169   0  7  0
 209  88   0 166 167   5  0  1
 210   9   0   0   0   0  0  0
 211 148  24   0   0   1  0  0
 212  88   0 170 171   2  0  0
 213 138   0 172 173   0 24  0
 214  88   0 170 171   5  0  1
 215   9   0   0   0   0  0  0
 216 148  11   0   0   1  0  0
 217  88   0 174 175   2  0  0
 218 138   0 176 177   0 11  0
 219  88   0 174 175   5  0  1
 220   9   0   0   0   0  0  0
 221 148  17   0   0   1  0  0
 222  88   0 178 179   2  0  0
 223 138   0 180 181   0 17  0
 224  88   0 178 179   5  0  1
 225   9   0   0   0   0  0  0
 226 148  22   0   0   1  0  0
 227  88   0 182 183   2  0  0
 228 138   0 184 185   0 22  0
 229  88   0 182 183   5  0  1
 230   9   0   0   0   0  0  0
 231 148   2   0   0   1  0  0
 232  88   0 186 187   2  0  0
 233 138   0 188 189   0  2  0
 234  88   0 186 187   5  0  1
 235   9   0   0   0   0  0  0
 236 148  23   0   0   1  0  0
 237  88   0 190 191   2  0  0
 238 138   0 192 193   0 23  0
 239  88   0 190 191   5  0  1
 240   9   0   0   0   0  0  0
 241 148  15   0   0   1  0  0
 242  88   0 194 195   2  0  0
 243 138   0 196 197   0 15  0
 244  88   0 194 195   5  0  1
 245   9   0   0   0   0  0  0
 246 148  14   0   0   1  0  0
 247  88   0 198 199   2  0  0
 248 138   0 200 201   0 14  0
 249  88   0 198 199   5  0  1
 250   9   0   0   0   0  0  0
 251 148  22   0   0   1  0  0
 252  88   0 202 203   2  0  0
 253 138   0 204 205   0 22  0
 254  88   0 202 203   5  0  1
 255   9   0   0   0   0  0  0
 256 148   4   0   0   1  0  0
 257  88   0 206 207   2  0  0
 258 138   0 208 209   0  4  0
 259  88   0 206 207   5  0  1
 260   9   0   0   0   0  0  0
 261 148  21   0   0   1  0  0
 262  88   0 210 211   2  0  0
 263 138   0 212 213   0 21  0
 264  88   0 210 211   5  0  1
 265   9   0   0   0   0  0  0
 266 148  18   0   0   1  0  0
 267  88   0 214 215   2  0  0
 268 138   0 216 217   0 18  0
 269  88   0 214 215   5  0  1
 270   9   0   0   0   0  0  0
 271 148  10   0   0   1  0  0
 272  88   0 218 219   2  0  0
 273 138   0 220 221   0 10  0
 274  88   0 218 219   5  0  1
 275   9   0   0   0   0  0  0
 276 148  20   0   0   1  0  0
 277  88   0 222 223   2  0  0
 278 138   0 224 225   0 20  0
 279  88   0 222 223   5  0  1
 280   9   0   0   0   0  0  0
 281 148   9   0   0   1  0  0
 282  88   0 226 227   2  0  0
 283 138   0 228 229   0  9  0
 284  88   0 226 227   5  0  1
 285   9   0   0   0   0  0  0
 286 148  19   0   0   1  0  0
 287  88   0 230 231   2  0  0
 288 138   0 232 233   0 19  0
 289  88   0 230 231   5  0  1
 290   9   0   0   0   0  0  0
 291 148  18   0   0   1  0  0
 292  88   0 234 235   2  0  0
 293 138   0 236 237   0 18  0
 294  88   0 234 235   5  0  1
 295   9   0   0   0   0  0  0
 296 148   5   0   0   1  0  0
 297  88   0 238 239   2  0  0
 298 138   0 240 241   0  5  0
 299  88   0 238 239   5  0  1
 300   9   0   0   0   0  0  0
 301 148  17   0   0   1  0  0
 302  88   0 242 243   2  0  0
 303 138   0 244 245   0 17  0
 304  88   0 242 243   5  0  1
 305   9   0   0   0   0  0  0
 306 148  13   0   0   1  0  0
[RF]
1      128.574 1 2 0 100 0 0
2      128.574 1 2 0 100 0 2.04204
3      128.574 1 2 0 100 0 6.12611
4      128.574 1 2 0 100 0 5.96903
5      128.574 1 2 0 100 0 1.5708
6      128.574 1 2 0 100 0 5.49779
7      128.574 1 2 0 100 0 5.18363
8      128.574 1 2 0 100 0 0.628319
9      128.574 1 2 0 100 0 4.39823
10      128.574 1 2 0 100 0 3.92699
11      128.574 1 2 0 100 0 2.82743
12      128.574 1 2 0 100 0 2.19911
13      128.574 1 2 0 100 0 3.61283
14      128.574 1 2 0 100 0 0.785398
15      128.574 1 2 0 100 0 1.25664
16      128.574 1 2 0 100 0 4.55531
17      128.574 1 2 0 100 0 4.71239
18      128.574 1 2 0 100 0 0.471239
19      128.574 1 2 0 100 0 1.41372
20      128.574 1 2 0 100 0 3.14159
21      128.574 1 2 0 100 0 5.34071
22      128.574 1 2 0 100 0 2.35619
23      128.574 1 2 0 100 0 3.76991
24      128.574 1 2 0 100 0 2.98451

# Format of trapezoid gradients:
# id amplitude rise flat fall delay
# ..      Hz/m   us   us   us    us
[TRAP]
 1       390625 100 1280 100   0
 2 -1.03666e+06 260    0 260   0
 3 -1.79332e+06 440    0 440   0
 4   1.5625e+06 370  640 370   0
 5       960286 240    0 240   0
 6       649856 440    0 440   0
 7 -1.67144e+06 440    0 440   0
 8      -566211 370  640 370   0
 9   1.4563e+06 370  640 370   0
10  1.32234e+06 440    0 440   0
11  1.21137e+06 440    0 440   0
12 -1.15214e+06 370  640 370   0
13 -1.05545e+06 370  640 370   0
14 -1.60822e+06 440    0 440   0
15       793494 440    0 440   0
16  1.40122e+06 370  640 370   0
17      -691361 370  640 370   0
18      -156782 440    0 440   0
19 -1.78646e+06 440    0 440   0
20       136602 370  640 370   0
21  1.55652e+06 370  640 370   0
22  1.72185e+06 440    0 440   0
23       501241 440    0 440   0
24 -1.50023e+06 370  640 370   0
25      -436725 370  640 370   0
26 -1.09113e+06 440    0 440   0
27  1.42318e+06 440    0 440   0
28       950686 370  640 370   0
29    -1.24e+06 370  640 370   0
30      -931055 440    0 440   0
31 -1.53269e+06 440    0 440   0
32       811216 370  640 370   0
33  1.33542e+06 370  640 370   0
34  1.76591e+06 440    0 440   0
35      -312364 440    0 440   0
36 -1.53861e+06 370  640 370   0
37       272159 370  640 370   0
38      -348788 440    0 440   0
39  1.75908e+06 440    0 440   0
40       303895 370  640 370   0
41 -1.53266e+06 370  640 370   0
42 -1.51313e+06 440    0 440   0
43      -962528 440    0 440   0
44  1.31837e+06 370  640 370   0
45       838638 370  640 370   0
46  1.44543e+06 440    0 440   0
47 -1.06149e+06 440    0 440   0
48 -1.25938e+06 370  640 370   0
49       924860 370  640 370   0
50       465554 440    0 440   0
51  1.73184e+06 440    0 440   0
52      -405631 370  640 370   0
53 -1.50893e+06 370  640 370   0
54 -1.78284e+06 440    0 440   0
55      -193664 440    0 440   0
56  1.55336e+06 370  640 370   0
57       168737 370  640 370   0
58       826556 440    0 440   0
59 -1.59148e+06 440    0 440   0
60      -720168 370  640 370   0
61  1.38664e+06 370  640 370   0
62  1.18379e+06 440    0 440   0
63  1.34709e+06 440    0 440   0
64 -1.03142e+06 370  640 370   0
65  -1.1737e+06 370  640 370   0
66 -1.68451e+06 440    0 440   0
67       615178 440    0 440   0
68  1.46769e+06 370  640 370   0
69      -535997 370  640 370   0
70      37057.1 440    0 440   0
71 -1.79294e+06 440    0 440   0
72     -32287.4 370  640 370   0
73  1.56217e+06 370  640 370   0
74  1.65765e+06 440    0 440   0
75       684255 440    0 440   0
76 -1.44429e+06 370  640 370   0
77      -596183 370  640 370   0
78 -1.23844e+06 440    0 440   0
79  1.29703e+06 440    0 440   0
80  1.07904e+06 370  640 370   0
81 -1.13008e+06 370  640 370   0
82      -760092 440    0 440   0
83 -1.62428e+06 440    0 440   0
84       662258 370  640 370   0
85  1.41521e+06 370  640 370   0
86  1.78932e+06 440    0 440   0
87      -119834 440    0 440   0
88 -1.55901e+06 370  640 370   0
89       104410 370  640 370   0
90      -536714 440    0 440   0
91  1.71112e+06 440    0 440   0
92       467632 370  640 370   0
93 -1.49088e+06 370  640 370   0
94 -1.40033e+06 440    0 440   0
95  -1.1203e+06 440    0 440   0
96  1.22009e+06 370  640 370   0
97       976106 370  640 370   0
98   1.5516e+06 440    0 440   0
99      -899185 440    0 440   0
100 -1.35189e+06 370  640 370   0
101       783448 370  640 370   0
102       275807 440    0 440   0
103  1.77199e+06 440    0 440   0
104      -240307 370  640 370   0
105 -1.54391e+06 370  640 370   0
106  -1.7515e+06 440    0 440   0
107      -385063 440    0 440   0
108  1.52606e+06 370  640 370   0
109       335501 370  640 370   0
110       993589 440    0 440   0
111 -1.49291e+06 440    0 440   0
112      -865702 370  640 370   0
113  1.30076e+06 370  640 370   0
114  1.03139e+06 440    0 440   0
115  1.46705e+06 440    0 440   0
116      -898638 370  640 370   0
117 -1.27822e+06 370  640 370   0
118 -1.74109e+06 440    0 440   0
119       429668 440    0 440   0
120  1.51699e+06 370  640 370   0
121      -374364 370  640 370   0
122       230463 440    0 440   0
123 -1.77845e+06 440    0 440   0
124      -200800 370  640 370   0
125  1.54954e+06 370  640 370   0
126  1.57406e+06 440    0 440   0
127       859266 440    0 440   0
128 -1.37146e+06 370  640 370   0
129      -748668 370  640 370   0
130 -1.37126e+06 440    0 440   0
131   1.1557e+06 440    0 440   0
132  1.19477e+06 370  640 370   0
133 -1.00695e+06 370  640 370   0
134      -580239 440    0 440   0
135 -1.69686e+06 440    0 440   0
136       505554 370  640 370   0
137  1.47845e+06 370  640 370   0
138  1.79179e+06 440    0 440   0
139      74098.4 440    0 440   0
140 -1.56117e+06 370  640 370   0
141       -64561 370  640 370   0
142      -718363 440    0 440   0
143  1.64316e+06 440    0 440   0
144       625900 370  640 370   0
145 -1.43166e+06 370  640 370   0
146 -1.27116e+06 440    0 440   0
147 -1.26498e+06 440    0 440   0
148  1.10754e+06 370  640 370   0
149  1.10216e+06 370  640 370   0
150  1.63964e+06 440    0 440   0
151      -726366 440    0 440   0
152 -1.42859e+06 370  640 370   0
153       632873 370  640 370   0
154      82833.8 440    0 440   0
155  1.79141e+06 440    0 440   0
156       -72172 370  640 370   0
157 -1.56083e+06 370  640 370   0
158 -1.69967e+06 440    0 440   0
159      -571958 440    0 440   0
160   1.4809e+06 370  640 370   0
161       498340 370  640 370   0
162    1.149e+06 440    0 440   0
163 -1.37688e+06 440    0 440   0
164 -1.00111e+06 370  640 370   0
165  1.19966e+06 370  640 370   0
166       866931 440    0 440   0
167  1.56985e+06 440    0 440   0
168      -755345 370  640 370   0
169 -1.36779e+06 370  640 370   0
170 -1.77731e+06 440    0 440   0
171       239132 440    0 440   0
172  1.54855e+06 370  640 370   0
173      -208352 370  640 370   0
174       421174 440    0 440   0
175 -1.74316e+06 440    0 440   0
176      -366963 370  640 370   0
177   1.5188e+06 370  640 370   0
178  1.47206e+06 440    0 440   0
179  1.02423e+06 440    0 440   0
180 -1.28259e+06 370  640 370   0
181      -892396 370  640 370   0
182 -1.48805e+06 440    0 440   0
183  1.00086e+06 440    0 440   0
184  1.29652e+06 370  640 370   0
185      -872033 370  640 370   0
186      -393598 440    0 440   0
187  -1.7496e+06 440    0 440   0
188       342937 370  640 370   0
189   1.5244e+06 370  640 370   0
190  1.77331e+06 440    0 440   0
191       267164 440    0 440   0
192 -1.54506e+06 370  640 370   0
193      -232776 370  640 370   0
194      -891609 440    0 440   0
195  1.55597e+06 440    0 440   0
196       776847 370  640 370   0
197  -1.3557e+06 370  640 370   0
198 -1.12712e+06 440    0 440   0
199 -1.39485e+06 440    0 440   0
200       982044 370  640 370   0
201  1.21532e+06 370  640 370   0
202  1.70849e+06 440    0 440   0
203      -545051 440    0 440   0
204 -1.48858e+06 370  640 370   0
205       474896 370  640 370   0
206      -111108 440    0 440   0
207  1.78988e+06 440    0 440   0
208        96807 370  640 370   0
209  -1.5595e+06 370  640 370   0
210 -1.62796e+06 440    0 440   0
211      -752163 440    0 440   0
212  1.41842e+06 370  640 370   0
213       655350 370  640 370   0
214  1.29097e+06 440    0 440   0
215 -1.24475e+06 440    0 440   0
216 -1.12481e+06 370  640 370   0
217  1.08453e+06 370  640 370   0
218       692329 440    0 440   0
219  1.65429e+06 440    0 440   0
220      -603218 370  640 370   0
221 -1.44137e+06 370  640 370   0
222 -1.79274e+06 440    0 440   0
223      45798.6 440    0 440   0
224  1.56199e+06 370  640 370   0
225     -39903.7 370  640 370   0
226       606958 440    0 440   0
227 -1.68749e+06 440    0 440   0
228      -528835 370  640 370   0
229  1.47029e+06 370  640 370   0
230  1.35285e+06 440    0 440   0
231  1.17721e+06 440    0 440   0
232 -1.17872e+06 370  640 370   0
233 -1.02569e+06 370  640 370   0
234 -1.58743e+06 440    0 440   0
235       834306 440    0 440   0
236  1.38311e+06 370  640 370   0
237      -726920 370  640 370   0
238      -202354 440    0 440   0
239 -1.78187e+06 440    0 440   0
240       176309 370  640 370   0
241  1.55252e+06 370  640 370   0
242  1.73409e+06 440    0 440   0
243       457104 440    0 440   0
244 -1.51089e+06 370  640 370   0
245      -398269 370  640 370   0
246 -1.05443e+06 440    0 440   0
247  1.45058e+06 440    0 440   0
248       918708 370  640 370   0
249 -1.26388e+06 370  640 370   0
250      -969894 440    0 440   0
251 -1.50842e+06 440    0 440   0
252       845056 370  640 370   0
253  1.31426e+06 370  640 370   0
254  1.75736e+06 440    0 440   0
255      -357361 440    0 440   0
256 -1.53116e+06 370  640 370   0
257       311364 370  640 370   0
258      -303750 440    0 440   0
259  1.76741e+06 440    0 440   0
260       264654 370  640 370   0
261 -1.53992e+06 370  640 370   0
262 -1.53721e+06 440    0 440   0
263      -923571 440    0 440   0
264  1.33935e+06 370  640 370   0
265       804696 370  640 370   0
266  1.41785e+06 440    0 440   0
267 -1.09805e+06 440    0 440   0
268 -1.23535e+06 370  640 370   0
269       956721 370  640 370   0
270       509630 440    0 440   0
271  1.71939e+06 440    0 440   0
272      -444034 370  640 370   0
273 -1.49808e+06 370  640 370   0
274  -1.7872e+06 440    0 440   0
275      -148070 440    0 440   0
276  1.55716e+06 370  640 370   0
277       129012 370  640 370   0
278       785643 440    0 440   0
279 -1.61207e+06 440    0 440   0
280      -684521 370  640 370   0
281  1.40458e+06 370  640 370   0
282  1.21781e+06 440    0 440   0
283  1.31642e+06 440    0 440   0
284 -1.06106e+06 370  640 370   0
285 -1.14698e+06 370  640 370   0
286 -1.66825e+06 440    0 440   0
287       657997 440    0 440   0
288  1.45352e+06 370  640 370   0
289      -573305 370  640 370   0
290     -8743.77 440    0 440   0
291  -1.7933e+06 440    0 440   0
292      7618.33 370  640 370   0
293  1.56248e+06 370  640 370   0
294  1.67458e+06 440    0 440   0
295       641698 440    0 440   0
296 -1.45904e+06 370  640 370   0
297      -559104 370  640 370   0
298 -1.20491e+06 440    0 440   0
299  1.32823e+06 440    0 440   0
300  1.04982e+06 370  640 370   0
301 -1.15727e+06 370  640 370   0
302      -801325 440    0 440   0
303 -1.60433e+06 440    0 440   0
304       698185 370  640 370   0
305  1.39784e+06 370  640 370   0
306  1.78567e+06 440    0 440   0
307      -165491 440    0 440   0
308 -1.55583e+06 370  640 370   0
309       144190 370  640 370   0
310      -492840 440    0 440   0
311  1.72427e+06 440    0 440   0
312       429405 370  640 370   0
313 -1.50234e+06 370  640 370   0
314 -1.42849e+06 440    0 440   0
315 -1.08418e+06 440    0 440   0
316  1.24462e+06 370  640 370   0
317       944629 370  640 370   0
318  1.52813e+06 440    0 440   0
319      -938517 440    0 440   0
320 -1.33144e+06 370  640 370   0
321       817718 370  640 370   0
322       320971 440    0 440   0
323  1.76437e+06 440    0 440   0
324      -279658 370  640 370   0
325 -1.53727e+06 370  640 370   0
326 -1.76076e+06 440    0 440   0
327      -340207 440    0 440   0
328  1.53413e+06 370  640 370   0
329       296418 370  640 370   0
330       955139 440    0 440   0
331  -1.5178e+06 440    0 440   0
332      -832200 370  640 370   0
333  1.32244e+06 370  640 370   0
334  1.06852e+06 440    0 440   0
335  1.44023e+06 440    0 440   0
336      -930989 370  640 370   0
337 -1.25486e+06 370  640 370   0
338 -1.72955e+06 440    0 440   0
339       473992 440    0 440   0
340  1.50693e+06 370  640 370   0
341      -412983 370  640 370   0
342       184969 440    0 440   0
343 -1.78376e+06 440    0 440   0
344      -161161 370  640 370   0
345  1.55417e+06 370  640 370   0
346  1.59549e+06 440    0 440   0
347       818787 440    0 440   0
348 -1.39013e+06 370  640 370   0
349      -713398 370  640 370   0
350  -1.3413e+06 440    0 440   0
351  1.19034e+06 440    0 440   0
352  1.16866e+06 370  640 370   0
353 -1.03713e+06 370  640 370   0
354      -623384 440    0 440   0
355 -1.68149e+06 440    0 440   0
356       543147 370  640 370   0
357  1.46506e+06 370  640 370   0
358   1.7931e+06 440    0 440   0
359      28314.8 440    0 440   0
360 -1.56231e+06 370  640 370   0
361     -24670.3 370  640 370   0
362      -676165 440    0 440   0
363  1.66097e+06 440    0 440   0
364       589134 370  640 370   0
365 -1.44718e+06 370  640 370   0
366 -1.30305e+06 440    0 440   0
367  -1.2321e+06 440    0 440   0
368  1.13533e+06 370  640 370   0
369  1.07351e+06 370  640 370   0
370  1.62055e+06 440    0 440   0
371      -768002 440    0 440   0
372 -1.41196e+06 370  640 370   0
373       669151 370  640 370   0
374       128556 440    0 440   0
375  1.78871e+06 440    0 440   0
376      -112010 370  640 370   0
377 -1.55848e+06 370  640 370   0
378 -1.71372e+06 440    0 440   0
379      -528365 440    0 440   0
380  1.49314e+06 370  640 370   0
381       460358 370  640 370   0
382  1.11346e+06 440    0 440   0
383 -1.40578e+06 440    0 440   0
384      -970146 370  640 370   0
385  1.22484e+06 370  640 370   0
386       906739 440    0 440   0
387   1.5472e+06 440    0 440   0
388      -790030 370  640 370   0
389 -1.34806e+06 370  640 370   0
390 -1.77062e+06 440    0 440   0
391       284443 440    0 440   0
392  1.54272e+06 370  640 370   0
393      -247832 370  640 370   0
394       376519 440    0 440   0
395 -1.75335e+06 440    0 440   0
396      -328056 370  640 370   0
397  1.52767e+06 370  640 370   0
398  1.49774e+06 440    0 440   0
399       986299 440    0 440   0
400 -1.30496e+06 370  640 370   0
401      -859349 370  640 370   0
402 -1.46201e+06 440    0 440   0
403  1.03853e+06 440    0 440   0
404  1.27383e+06 370  640 370   0
405      -904860 370  640 370   0
406      -438152 440    0 440   0
407 -1.73897e+06 440    0 440   0
408       381756 370  640 370   0
409  1.51515e+06 370  640 370   0
410  1.77956e+06 440    0 440   0
411       221789 440    0 440   0
412  -1.5505e+06 370  640 370   0
413      -193242 370  640 370   0
414      -851581 440    0 440   0
415  1.57823e+06 440    0 440   0
416       741972 370  640 370   0
417 -1.37509e+06 370  640 370   0
418 -1.16237e+06 440    0 440   0
419 -1.36561e+06 440    0 440   0
420  1.01276e+06 370  640 370   0
421  1.18984e+06 370  640 370   0
422  1.69401e+06 440    0 440   0
423      -588505 440    0 440   0
424 -1.47597e+06 370  640 370   0
425       512757 370  640 370   0
426     -65361.2 440    0 440   0
427  1.79213e+06 440    0 440   0
428      56948.4 370  640 370   0
429 -1.56146e+06 370  640 370   0
430 -1.64664e+06 440    0 440   0
431      -710343 440    0 440   0
432   1.4347e+06 370  640 370   0
433       618912 370  640 370   0
434  1.25876e+06 440    0 440   0
435 -1.27731e+06 440    0 440   0
436 -1.09674e+06 370  640 370   0
437  1.11291e+06 370  640 370   0
438       734352 440    0 440   0
439  1.63607e+06 440    0 440   0
440      -639831 370  640 370   0
441 -1.42549e+06 370  640 370   0
442 -1.79098e+06 440    0 440   0
443      91567.3 440    0 440   0
444  1.56046e+06 370  640 370   0
445     -79781.4 370  640 370   0
446       563664 440    0 440   0
447 -1.70244e+06 440    0 440   0
448      -491113 370  640 370   0
449  1.48331e+06 370  640 370   0
450  1.38247e+06 440    0 440   0
451  1.14227e+06 440    0 440   0
452 -1.20453e+06 370  640 370   0
453      -995249 370  640 370   0
454 -1.56561e+06 440    0 440   0
455       874575 440    0 440   0
456  1.36409e+06 370  640 370   0
457      -762006 370  640 370   0
458      -247795 440    0 440   0
459 -1.77612e+06 440    0 440   0
460       215900 370  640 370   0
461  1.54751e+06 370  640 370   0
462   1.7452e+06 440    0 440   0
463       412669 440    0 440   0
464 -1.52057e+06 370  640 370   0
465      -359554 370  640 370   0
466 -1.01704e+06 440    0 440   0
467  1.47704e+06 440    0 440   0
468       886131 370  640 370   0
469 -1.28693e+06 370  640 370   0
470  -1.0081e+06 440    0 440   0
471 -1.48315e+06 440    0 440   0
472       878345 370  640 370   0
473  1.29225e+06 370  640 370   0
474  1.74766e+06 440    0 440   0
475      -402124 440    0 440   0
476 -1.52271e+06 370  640 370   0
477       350366 370  640 370   0
478      -258514 440    0 440   0
479  1.77459e+06 440    0 440   0
480       225240 370  640 370   0
481 -1.54618e+06 370  640 370   0
482  -1.5603e+06 440    0 440   0
483      -884012 440    0 440   0
484  1.35947e+06 370  640 370   0
485       770228 370  640 370   0
486  1.38934e+06 440    0 440   0
487 -1.13391e+06 440    0 440   0
488 -1.21051e+06 370  640 370   0
489       987957 370  640 370   0
490       553374 440    0 440   0
491  1.70581e+06 440    0 440   0
492      -482148 370  640 370   0
493 -1.48625e+06 370  640 370   0
494  -1.7904e+06 440    0 440   0
495      -102380 440    0 440   0
496  1.55995e+06 370  640 370   0
497      89202.2 370  640 370   0
498       744217 440    0 440   0
499 -1.63161e+06 440    0 440   0
500      -648427 370  640 370   0
501   1.4216e+06 370  640 370   0
502  1.25103e+06 440    0 440   0
503  1.28489e+06 440    0 440   0
504    -1.09e+06 370  640 370   0
505 -1.11951e+06 370  640 370   0
506  -1.6509e+06 440    0 440   0
507       700387 440    0 440   0
508  1.43841e+06 370  640 370   0
509      -610238 370  640 370   0
510     -54538.9 440    0 440   0
511 -1.79249e+06 440    0 440   0
512      47519.1 370  640 370   0
513  1.56178e+06 370  640 370   0
514  1.69043e+06 440    0 440   0
515       598723 440    0 440   0
516 -1.47285e+06 370  640 370   0
517      -521660 370  640 370   0
518  -1.1706e+06 440    0 440   0
519  1.35857e+06 440    0 440   0
520  1.01993e+06 370  640 370   0
521  -1.1837e+06 370  640 370   0
522      -842036 440    0 440   0
523 -1.58335e+06 440    0 440   0
524       733655 370  640 370   0
525  1.37955e+06 370  640 370   0
526  1.78086e+06 440    0 440   0
527      -211040 440    0 440   0
528 -1.55164e+06 370  640 370   0
529       183876 370  640 370   0
530      -448644 440    0 440   0
531   1.7363e+06 440    0 440   0
532       390898 370  640 370   0
533 -1.51281e+06 370  640 370   0
534 -1.45571e+06 440    0 440   0
535 -1.04734e+06 440    0 440   0
536  1.26834e+06 370  640 370   0
537       912535 370  640 370   0
538  1.50367e+06 440    0 440   0
539      -977237 440    0 440   0
540 -1.31013e+06 370  640 370   0
541       851454 370  640 370   0
542       365925 440    0 440   0
543  1.75559e+06 440    0 440   0
544      -318826 370  640 370   0
545 -1.52963e+06 370  640 370   0
546 -1.76887e+06 440    0 440   0
547      -295129 440    0 440   0
548   1.5412e+06 370  640 370   0
549       257142 370  640 370   0
550       916065 440    0 440   0
551  -1.5417e+06 440    0 440   0
552      -798156 370  640 370   0
553  1.34326e+06 370  640 370   0
554  1.10495e+06 440    0 440   0
555  1.41248e+06 440    0 440   0
556      -962732 370  640 370   0
557 -1.23067e+06 370  640 370   0
558 -1.71688e+06 440    0 440   0
559       518008 440    0 440   0
560   1.4959e+06 370  640 370   0
561      -451333 370  640 370   0
562       139355 440    0 440   0
