# Pulseq sequence file
# Created by PyPulseq

[VERSION]
major 1
minor 4
revision 0

[DEFINITIONS]
AdcRasterTime 1e-07 
BlockDurationRaster 1e-05 
FOV 0.256 0.256 0.008 
Flipangle 15 
GradientRasterTime 1e-05 
RadiofrequencyRasterTime 1e-06 
TE 0.00232 
TR 0.0047 
TotalDuration 1.89342 
delta 0.0078149071 
name 20240319_radial_2D_256mm_402spokes_uniform 
number_of_readouts 256 
number_of_spokes 402 
sampling_scheme radial 

# Format of blocks:
# NUM DUR RF  GX  GY  GZ  ADC  EXT
[BLOCKS]
   1 148   1   0   0   1  0  0
   2  88   0   3   0   2  0  0
   3 138   0   4   0   0  1  0
   4  88   0   3   0   5  0  1
   5   9   0   0   0   0  0  0
   6 148   2   0   0   1  0  0
   7  88   0   6   7   2  0  0
   8 138   0   8   9   0  2  0
   9  88   0   6   7   5  0  1
  10   9   0   0   0   0  0  0
  11 148   3   0   0   1  0  0
  12  88   0  10  11   2  0  0
  13 138   0  12  13   0  3  0
  14  88   0  10  11   5  0  1
  15   9   0   0   0   0  0  0
  16 148   4   0   0   1  0  0
  17  88   0  14  15   2  0  0
  18 138   0  16  17   0  4  0
  19  88   0  14  15   5  0  1
  20   9   0   0   0   0  0  0
  21 148   5   0   0   1  0  0
  22  88   0  18  19   2  0  0
  23 138   0  20  21   0  5  0
  24  88   0  18  19   5  0  1
  25   9   0   0   0   0  0  0
  26 148   6   0   0   1  0  0
  27  88   0  22  23   2  0  0
  28 138   0  24  25   0  6  0
  29  88   0  22  23   5  0  1
  30   9   0   0   0   0  0  0
  31 148   7   0   0   1  0  0
  32  88   0  26  27   2  0  0
  33 138   0  28  29   0  7  0
  34  88   0  26  27   5  0  1
  35   9   0   0   0   0  0  0
  36 148   8   0   0   1  0  0
  37  88   0  30  31   2  0  0
  38 138   0  32  33   0  8  0
  39  88   0  30  31   5  0  1
  40   9   0   0   0   0  0  0
  41 148   9   0   0   1  0  0
  42  88   0  34  35   2  0  0
  43 138   0  36  37   0  9  0
  44  88   0  34  35   5  0  1
  45   9   0   0   0   0  0  0
  46 148  10   0   0   1  0  0
  47  88   0  38  39   2  0  0
  48 138   0  40  41   0 10  0
  49  88   0  38  39   5  0  1
  50   9   0   0   0   0  0  0
  51 148   6   0   0   1  0  0
  52  88   0  42  43   2  0  0
  53 138   0  44  45   0  6  0
  54  88   0  42  43   5  0  1
  55   9   0   0   0   0  0  0
  56 148  11   0   0   1  0  0
  57  88   0  46  47   2  0  0
  58 138   0  48  49   0 11  0
  59  88   0  46  47   5  0  1
  60   9   0   0   0   0  0  0
  61 148  12   0   0   1  0  0
  62  88   0  50  51   2  0  0
  63 138   0  52  53   0 12  0
  64  88   0  50  51   5  0  1
  65   9   0   0   0   0  0  0
  66 148  13   0   0   1  0  0
  67  88   0  54  55   2  0  0
  68 138   0  56  57   0 13  0
  69  88   0  54  55   5  0  1
  70   9   0   0   0   0  0  0
  71 148  14   0   0   1  0  0
  72  88   0  58  59   2  0  0
  73 138   0  60  61   0 14  0
  74  88   0  58  59   5  0  1
  75   9   0   0   0   0  0  0
  76 148   1   0   0   1  0  0
  77  88   0  62  63   2  0  0
  78 138   0  64  65   0  1  0
  79  88   0  62  63   5  0  1
  80   9   0   0   0   0  0  0
  81 148  15   0   0   1  0  0
  82  88   0  66  67   2  0  0
  83 138   0  68  69   0 15  0
  84  88   0  66  67   5  0  1
  85   9   0   0   0   0  0  0
  86 148  16   0   0   1  0  0
  87  88   0  70  71   2  0  0
  88 138   0  72  73   0 16  0
  89  88   0  70  71   5  0  1
  90   9   0   0   0   0  0  0
  91 148  13   0   0   1  0  0
  92  88   0  74  75   2  0  0
  93 138   0  76  77   0 13  0
  94  88   0  74  75   5  0  1
  95   9   0   0   0   0  0  0
  96 148  17   0   0   1  0  0
  97  88   0  78  79   2  0  0
  98 138   0  80  81   0 17  0
  99  88   0  78  79   5  0  1
 100   9   0   0   0   0  0  0
 101 148   5   0   0   1  0  0
 102  88   0  82  83   2  0  0
 103 138   0  84  85   0  5  0
 104  88   0  82  83   5  0  1
 105   9   0   0   0   0  0  0
 106 148  18   0   0   1  0  0
 107  88   0  86  87   2  0  0
 108 138   0  88  89   0 18  0
 109  88   0  86  87   5  0  1
 110   9   0   0   0   0  0  0
 111 148  19   0   0   1  0  0
 112  88   0  90  91   2  0  0
 113 138   0  92  93   0 19  0
 114  88   0  90  91   5  0  1
 115   9   0   0   0   0  0  0
 116 148   9   0   0   1  0  0
 117  88   0  94  95   2  0  0
 118 138   0  96  97   0  9  0
 119  88   0  94  95   5  0  1
 120   9   0   0   0   0  0  0
 121 148  20   0   0   1  0  0
 122  88   0  98  99   2  0  0
 123 138   0 100 101   0 20  0
 124  88   0  98  99   5  0  1
 125   9   0   0   0   0  0  0
 126 148  10   0   0   1  0  0
 127  88   0 102 103   2  0  0
 128 138   0 104 105   0 10  0
 129  88   0 102 103   5  0  1
 130   9   0   0   0   0  0  0
 131 148  18   0   0   1  0  0
 132  88   0 106 107   2  0  0
 133 138   0 108 109   0 18  0
 134  88   0 106 107   5  0  1
 135   9   0   0   0   0  0  0
 136 148  21   0   0   1  0  0
 137  88   0 110 111   2  0  0
 138 138   0 112 113   0 21  0
 139  88   0 110 111   5  0  1
 140   9   0   0   0   0  0  0
 141 148   4   0   0   1  0  0
 142  88   0 114 115   2  0  0
 143 138   0 116 117   0  4  0
 144  88   0 114 115   5  0  1
 145   9   0   0   0   0  0  0
 146 148  22   0   0   1  0  0
 147  88   0 118 119   2  0  0
 148 138   0 120 121   0 22  0
 149  88   0 118 119   5  0  1
 150   9   0   0   0   0  0  0
 151 148  14   0   0   1  0  0
 152  88   0 122 123   2  0  0
 153 138   0 124 125   0 14  0
 154  88   0 122 123   5  0  1
 155   9   0   0   0   0  0  0
 156 148  15   0   0   1  0  0
 157  88   0 126 127   2  0  0
 158 138   0 128 129   0 15  0
 159  88   0 126 127   5  0  1
 160   9   0   0   0   0  0  0
 161 148  23   0   0   1  0  0
 162  88   0 130 131   2  0  0
 163 138   0 132 133   0 23  0
 164  88   0 130 131   5  0  1
 165   9   0   0   0   0  0  0
 166 148   2   0   0   1  0  0
 167  88   0 134 135   2  0  0
 168 138   0 136 137   0  2  0
 169  88   0 134 135   5  0  1
 170   9   0   0   0   0  0  0
 171 148  22   0   0   1  0  0
 172  88   0 138 139   2  0  0
 173 138   0 140 141   0 22  0
 174  88   0 138 139   5  0  1
 175   9   0   0   0   0  0  0
 176 148  17   0   0   1  0  0
 177  88   0 142 143   2  0  0
 178 138   0 144 145   0 17  0
 179  88   0 142 143   5  0  1
 180   9   0   0   0   0  0  0
 181 148  11   0   0   1  0  0
 182  88   0 146 147   2  0  0
 183 138   0 148 149   0 11  0
 184  88   0 146 147   5  0  1
 185   9   0   0   0   0  0  0
 186 148  24   0   0   1  0  0
 187  88   0 150 151   2  0  0
 188 138   0 152 153   0 24  0
 189  88   0 150 151   5  0  1
 190   9   0   0   0   0  0  0
 191 148   7   0   0   1  0  0
 192  88   0 154 155   2  0  0
 193 138   0 156 157   0  7  0
 194  88   0 154 155   5  0  1
 195   9   0   0   0   0  0  0
 196 148  20   0   0   1  0  0
 197  88   0 158 159   2  0  0
 198 138   0 160 161   0 20  0
 199  88   0 158 159   5  0  1
 200   9   0   0   0   0  0  0
 201 148  20   0   0   1  0  0
 202  88   0 162 163   2  0  0
 203 138   0 164 165   0 20  0
 204  88   0 162 163   5  0  1
 205   9   0   0   0   0  0  0
 206 148   7   0   0   1  0  0
 207  88   0 166 167   2  0  0
 208 138   0 168 169   0  7  0
 209  88   0 166 167   5  0  1
 210   9   0   0   0   0  0  0
 211 148  24   0   0   1  0  0
 212  88   0 170 171   2  0  0
 213 138   0 172 173   0 24  0
 214  88   0 170 171   5  0  1
 215   9   0   0   0   0  0  0
 216 148  11   0   0   1  0  0
 217  88   0 174 175   2  0  0
 218 138   0 176 177   0 11  0
 219  88   0 174 175   5  0  1
 220   9   0   0   0   0  0  0
 221 148  17   0   0   1  0  0
 222  88   0 178 179   2  0  0
 223 138   0 180 181   0 17  0
 224  88   0 178 179   5  0  1
 225   9   0   0   0   0  0  0
 226 148  22   0   0   1  0  0
 227  88   0 182 183   2  0  0
 228 138   0 184 185   0 22  0
 229  88   0 182 183   5  0  1
 230   9   0   0   0   0  0  0
 231 148   2   0   0   1  0  0
 232  88   0 186 187   2  0  0
 233 138   0 188 189   0  2  0
 234  88   0 186 187   5  0  1
 235   9   0   0   0   0  0  0
 236 148  23   0   0   1  0  0
 237  88   0 190 191   2  0  0
 238 138   0 192 193   0 23  0
 239  88   0 190 191   5  0  1
 240   9   0   0   0   0  0  0
 241 148  15   0   0   1  0  0
 242  88   0 194 195   2  0  0
 243 138   0 196 197   0 15  0
 244  88   0 194 195   5  0  1
 245   9   0   0   0   0  0  0
 246 148  14   0   0   1  0  0
 247  88   0 198 199   2  0  0
 248 138   0 200 201   0 14  0
 249  88   0 198 199   5  0  1
 250   9   0   0   0   0  0  0
 251 148  22   0   0   1  0  0
 252  88   0 202 203   2  0  0
 253 138   0 204 205   0 22  0
 254  88   0 202 203   5  0  1
 255   9   0   0   0   0  0  0
 256 148   4   0   0   1  0  0
 257  88   0 206 207   2  0  0
 258 138   0 208 209   0  4  0
 259  88   0 206 207   5  0  1
 260   9   0   0   0   0  0  0
 261 148  21   0   0   1  0  0
 262  88   0 210 211   2  0  0
 263 138   0 212 213   0 21  0
 264  88   0 210 211   5  0  1
 265   9   0   0   0   0  0  0
 266 148  18   0   0   1  0  0
 267  88   0 214 215   2  0  0
 268 138   0 216 217   0 18  0
 269  88   0 214 215   5  0  1
 270   9   0   0   0   0  0  0
 271 148  10   0   0   1  0  0
 272  88   0 218 219   2  0  0
 273 138   0 220 221   0 10  0
 274  88   0 218 219   5  0  1
 275   9   0   0   0   0  0  0
 276 148  20   0   0   1  0  0
 277  88   0 222 223   2  0  0
 278 138   0 224 225   0 20  0
 279  88   0 222 223   5  0  1
 280   9   0   0   0   0  0  0
 281 148   9   0   0   1  0  0
 282  88   0 226 227   2  0  0
 283 138   0 228 229   0  9  0
 284  88   0 226 227   5  0  1
 285   9   0   0   0   0  0  0
 286 148  19   0   0   1  0  0
 287  88   0 230 231   2  0  0
 288 138   0 232 233   0 19  0
 289  88   0 230 231   5  0  1
 290   9   0   0   0   0  0  0
 291 148  18   0   0   1  0  0
 292  88   0 234 235   2  0  0
 293 138   0 236 237   0 18  0
 294  88   0 234 235   5  0  1
 295   9   0   0   0   0  0  0
 296 148   5   0   0   1  0  0
 297  88   0 238 239   2  0  0
 298 138   0 240 241   0  5  0
 299  88   0 238 239   5  0  1
 300   9   0   0   0   0  0  0
 301 148  17   0   0   1  0  0
 302  88   0 242 243   2  0  0
 303 138   0 244 245   0 17  0
 304  88   0 242 243   5  0  1
 305   9   0   0   0   0  0  0
 306 148  13   0   0   1  0  0
[RF]
1      128.574 1 2 0 100 0 0
2      128.574 1 2 0 100 0 2.04204
3      128.574 1 2 0 100 0 6.12611
4      128.574 1 2 0 100 0 5.96903
5      128.574 1 2 0 100 0 1.5708
6      128.574 1 2 0 100 0 5.49779
7      128.574 1 2 0 100 0 5.18363
8      128.574 1 2 0 100 0 0.628319
9      128.574 1 2 0 100 0 4.39823
10      128.574 1 2 0 100 0 3.92699
11      128.574 1 2 0 100 0 2.82743
12      128.574 1 2 0 100 0 2.19911
13      128.574 1 2 0 100 0 3.61283
14      128.574 1 2 0 100 0 0.785398
15      128.574 1 2 0 100 0 1.25664
16      128.574 1 2 0 100 0 4.55531
17      128.574 1 2 0 100 0 4.71239
18      128.574 1 2 0 100 0 0.471239
19      128.574 1 2 0 100 0 1.41372
20      128.574 1 2 0 100 0 3.14159
21      128.574 1 2 0 100 0 5.34071
22      128.574 1 2 0 100 0 2.35619
23      128.574 1 2 0 100 0 3.76991
24      128.574 1 2 0 100 0 2.98451

# Format of trapezoid gradients:
# id amplitude rise flat fall delay
# ..      Hz/m   us   us   us    us
[TRAP]
 1       390625 100 1280 100   0
 2 -1.03666e+06 260    0 260   0
 3 -1.79332e+06 440    0 440   0
 4   1.5625e+06 370  640 370   0
 5       960286 240    0 240   0
 6 -1.79327e+06 440    0 440   0
 7     -14014.5 440    0 440   0
 8  1.56245e+06 370  640 370   0
 9      12210.7 370  640 370   0
10  -1.7931e+06 440    0 440   0
11     -28028.2 440    0 440   0
12  1.56231e+06 370  640 370   0
13      24420.6 370  640 370   0
14 -1.79283e+06 440    0 440   0
15     -42040.1 440    0 440   0
16  1.56207e+06 370  640 370   0
17        36629 370  640 370   0
18 -1.79245e+06 440    0 440   0
19     -56049.5 440    0 440   0
20  1.56174e+06 370  640 370   0
21      48835.2 370  640 370   0
22 -1.79195e+06 440    0 440   0
23     -70055.5 440    0 440   0
24  1.56131e+06 370  640 370   0
25      61038.4 370  640 370   0
26 -1.79135e+06 440    0 440   0
27     -84057.1 440    0 440   0
28  1.56078e+06 370  640 370   0
29      73237.9 370  640 370   0
30 -1.79064e+06 440    0 440   0
31     -98053.7 440    0 440   0
32  1.56016e+06 370  640 370   0
33      85432.9 370  640 370   0
34 -1.78982e+06 440    0 440   0
35      -112044 440    0 440   0
36  1.55945e+06 370  640 370   0
37      97622.7 370  640 370   0
38 -1.78889e+06 440    0 440   0
39      -126028 440    0 440   0
40  1.55864e+06 370  640 370   0
41       109807 370  640 370   0
42 -1.78785e+06 440    0 440   0
43      -140004 440    0 440   0
44  1.55773e+06 370  640 370   0
45       121984 370  640 370   0
46  -1.7867e+06 440    0 440   0
47      -153971 440    0 440   0
48  1.55673e+06 370  640 370   0
49       134153 370  640 370   0
50 -1.78544e+06 440    0 440   0
51      -167930 440    0 440   0
52  1.55563e+06 370  640 370   0
53       146315 370  640 370   0
54 -1.78408e+06 440    0 440   0
55      -181877 440    0 440   0
56  1.55444e+06 370  640 370   0
57       158467 370  640 370   0
58  -1.7826e+06 440    0 440   0
59      -195814 440    0 440   0
60  1.55316e+06 370  640 370   0
61       170610 370  640 370   0
62 -1.78102e+06 440    0 440   0
63      -209739 440    0 440   0
64  1.55178e+06 370  640 370   0
65       182743 370  640 370   0
66 -1.77932e+06 440    0 440   0
67      -223651 440    0 440   0
68   1.5503e+06 370  640 370   0
69       194864 370  640 370   0
70 -1.77752e+06 440    0 440   0
71      -237549 440    0 440   0
72  1.54873e+06 370  640 370   0
73       206973 370  640 370   0
74 -1.77561e+06 440    0 440   0
75      -251433 440    0 440   0
76  1.54707e+06 370  640 370   0
77       219070 370  640 370   0
78 -1.77359e+06 440    0 440   0
79      -265301 440    0 440   0
80  1.54531e+06 370  640 370   0
81       231153 370  640 370   0
82 -1.77146e+06 440    0 440   0
83      -279153 440    0 440   0
84  1.54345e+06 370  640 370   0
85       243223 370  640 370   0
86 -1.76923e+06 440    0 440   0
87      -292989 440    0 440   0
88  1.54151e+06 370  640 370   0
89       255277 370  640 370   0
90 -1.76688e+06 440    0 440   0
91      -306806 440    0 440   0
92  1.53946e+06 370  640 370   0
93       267316 370  640 370   0
94 -1.76443e+06 440    0 440   0
95      -320604 440    0 440   0
96  1.53733e+06 370  640 370   0
97       279338 370  640 370   0
98 -1.76187e+06 440    0 440   0
99      -334383 440    0 440   0
100   1.5351e+06 370  640 370   0
101       291344 370  640 370   0
102 -1.75921e+06 440    0 440   0
103      -348142 440    0 440   0
104  1.53277e+06 370  640 370   0
105       303331 370  640 370   0
106 -1.75643e+06 440    0 440   0
107      -361879 440    0 440   0
108  1.53036e+06 370  640 370   0
109       315301 370  640 370   0
110 -1.75355e+06 440    0 440   0
111      -375594 440    0 440   0
112  1.52785e+06 370  640 370   0
113       327250 370  640 370   0
114 -1.75056e+06 440    0 440   0
115      -389286 440    0 440   0
116  1.52524e+06 370  640 370   0
117       339180 370  640 370   0
118 -1.74747e+06 440    0 440   0
119      -402955 440    0 440   0
120  1.52254e+06 370  640 370   0
121       351089 370  640 370   0
122 -1.74426e+06 440    0 440   0
123      -416599 440    0 440   0
124  1.51975e+06 370  640 370   0
125       362977 370  640 370   0
126 -1.74095e+06 440    0 440   0
127      -430217 440    0 440   0
128  1.51687e+06 370  640 370   0
129       374843 370  640 370   0
130 -1.73754e+06 440    0 440   0
131      -443809 440    0 440   0
132   1.5139e+06 370  640 370   0
133       386685 370  640 370   0
134 -1.73402e+06 440    0 440   0
135      -457374 440    0 440   0
136  1.51083e+06 370  640 370   0
137       398504 370  640 370   0
138 -1.73039e+06 440    0 440   0
139      -470911 440    0 440   0
140  1.50767e+06 370  640 370   0
141       410299 370  640 370   0
142 -1.72666e+06 440    0 440   0
143      -484420 440    0 440   0
144  1.50441e+06 370  640 370   0
145       422069 370  640 370   0
146 -1.72282e+06 440    0 440   0
147      -497898 440    0 440   0
148  1.50107e+06 370  640 370   0
149       433813 370  640 370   0
150 -1.71888e+06 440    0 440   0
151      -511347 440    0 440   0
152  1.49763e+06 370  640 370   0
153       445530 370  640 370   0
154 -1.71483e+06 440    0 440   0
155      -524764 440    0 440   0
156  1.49411e+06 370  640 370   0
157       457220 370  640 370   0
158 -1.71067e+06 440    0 440   0
159      -538149 440    0 440   0
160  1.49049e+06 370  640 370   0
161       468882 370  640 370   0
162 -1.70642e+06 440    0 440   0
163      -551501 440    0 440   0
164  1.48678e+06 370  640 370   0
165       480516 370  640 370   0
166 -1.70205e+06 440    0 440   0
167      -564820 440    0 440   0
168  1.48298e+06 370  640 370   0
169       492120 370  640 370   0
170 -1.69759e+06 440    0 440   0
171      -578104 440    0 440   0
172  1.47909e+06 370  640 370   0
173       503694 370  640 370   0
174 -1.69302e+06 440    0 440   0
175      -591352 440    0 440   0
176  1.47511e+06 370  640 370   0
177       515238 370  640 370   0
178 -1.68835e+06 440    0 440   0
179      -604565 440    0 440   0
180  1.47103e+06 370  640 370   0
181       526750 370  640 370   0
182 -1.68357e+06 440    0 440   0
183      -617741 440    0 440   0
184  1.46687e+06 370  640 370   0
185       538229 370  640 370   0
186 -1.67869e+06 440    0 440   0
187      -630879 440    0 440   0
188  1.46262e+06 370  640 370   0
189       549676 370  640 370   0
190 -1.67371e+06 440    0 440   0
191      -643978 440    0 440   0
192  1.45828e+06 370  640 370   0
193       561090 370  640 370   0
194 -1.66863e+06 440    0 440   0
195      -657038 440    0 440   0
196  1.45385e+06 370  640 370   0
197       572469 370  640 370   0
198 -1.66344e+06 440    0 440   0
199      -670058 440    0 440   0
200  1.44933e+06 370  640 370   0
201       583813 370  640 370   0
202 -1.65815e+06 440    0 440   0
203      -683037 440    0 440   0
204  1.44473e+06 370  640 370   0
205       595121 370  640 370   0
206 -1.65276e+06 440    0 440   0
207      -695974 440    0 440   0
208  1.44003e+06 370  640 370   0
209       606394 370  640 370   0
210 -1.64728e+06 440    0 440   0
211      -708869 440    0 440   0
212  1.43525e+06 370  640 370   0
213       617629 370  640 370   0
214 -1.64169e+06 440    0 440   0
215      -721721 440    0 440   0
216  1.43038e+06 370  640 370   0
217       628826 370  640 370   0
218 -1.63599e+06 440    0 440   0
219      -734528 440    0 440   0
220  1.42542e+06 370  640 370   0
221       639985 370  640 370   0
222  -1.6302e+06 440    0 440   0
223      -747291 440    0 440   0
224  1.42038e+06 370  640 370   0
225       651105 370  640 370   0
226 -1.62431e+06 440    0 440   0
227      -760008 440    0 440   0
228  1.41524e+06 370  640 370   0
229       662185 370  640 370   0
230 -1.61833e+06 440    0 440   0
231      -772678 440    0 440   0
232  1.41003e+06 370  640 370   0
233       673225 370  640 370   0
234 -1.61224e+06 440    0 440   0
235      -785302 440    0 440   0
236  1.40472e+06 370  640 370   0
237       684223 370  640 370   0
238 -1.60605e+06 440    0 440   0
239      -797877 440    0 440   0
240  1.39933e+06 370  640 370   0
241       695180 370  640 370   0
242 -1.59977e+06 440    0 440   0
243      -810404 440    0 440   0
244  1.39386e+06 370  640 370   0
245       706094 370  640 370   0
246 -1.59339e+06 440    0 440   0
247      -822881 440    0 440   0
248   1.3883e+06 370  640 370   0
249       716965 370  640 370   0
250 -1.58691e+06 440    0 440   0
251      -835308 440    0 440   0
252  1.38265e+06 370  640 370   0
253       727793 370  640 370   0
254 -1.58033e+06 440    0 440   0
255      -847684 440    0 440   0
256  1.37692e+06 370  640 370   0
257       738576 370  640 370   0
258 -1.57366e+06 440    0 440   0
259      -860008 440    0 440   0
260  1.37111e+06 370  640 370   0
261       749314 370  640 370   0
262 -1.56689e+06 440    0 440   0
263      -872279 440    0 440   0
264  1.36521e+06 370  640 370   0
265       760006 370  640 370   0
266 -1.56002e+06 440    0 440   0
267      -884498 440    0 440   0
268  1.35923e+06 370  640 370   0
269       770651 370  640 370   0
270 -1.55306e+06 440    0 440   0
271      -896662 440    0 440   0
272  1.35316e+06 370  640 370   0
273       781250 370  640 370   0
274 -1.54601e+06 440    0 440   0
275      -908771 440    0 440   0
276  1.34702e+06 370  640 370   0
277       791801 370  640 370   0
278 -1.53886e+06 440    0 440   0
279      -920826 440    0 440   0
280  1.34079e+06 370  640 370   0
281       802303 370  640 370   0
282 -1.53162e+06 440    0 440   0
283      -932823 440    0 440   0
284  1.33448e+06 370  640 370   0
285       812757 370  640 370   0
286 -1.52428e+06 440    0 440   0
287      -944764 440    0 440   0
288  1.32809e+06 370  640 370   0
289       823161 370  640 370   0
290 -1.51685e+06 440    0 440   0
291      -956647 440    0 440   0
292  1.32161e+06 370  640 370   0
293       833514 370  640 370   0
294 -1.50933e+06 440    0 440   0
295      -968472 440    0 440   0
296  1.31506e+06 370  640 370   0
297       843817 370  640 370   0
298 -1.50171e+06 440    0 440   0
299      -980238 440    0 440   0
300  1.30842e+06 370  640 370   0
301       854068 370  640 370   0
302 -1.49401e+06 440    0 440   0
303      -991943 440    0 440   0
304  1.30171e+06 370  640 370   0
305       864267 370  640 370   0
306 -1.48621e+06 440    0 440   0
307 -1.00359e+06 440    0 440   0
308  1.29492e+06 370  640 370   0
309       874414 370  640 370   0
310 -1.47832e+06 440    0 440   0
311 -1.01517e+06 440    0 440   0
312  1.28804e+06 370  640 370   0
313       884507 370  640 370   0
314 -1.47034e+06 440    0 440   0
315 -1.02669e+06 440    0 440   0
316  1.28109e+06 370  640 370   0
317       894545 370  640 370   0
318 -1.46228e+06 440    0 440   0
319 -1.03815e+06 440    0 440   0
320  1.27406e+06 370  640 370   0
321       904530 370  640 370   0
322 -1.45412e+06 440    0 440   0
323 -1.04955e+06 440    0 440   0
324  1.26695e+06 370  640 370   0
325       914458 370  640 370   0
326 -1.44587e+06 440    0 440   0
327 -1.06088e+06 440    0 440   0
328  1.25977e+06 370  640 370   0
329       924332 370  640 370   0
330 -1.43754e+06 440    0 440   0
331 -1.07215e+06 440    0 440   0
332  1.25251e+06 370  640 370   0
333       934148 370  640 370   0
334 -1.42911e+06 440    0 440   0
335 -1.08335e+06 440    0 440   0
336  1.24517e+06 370  640 370   0
337       943908 370  640 370   0
338  -1.4206e+06 440    0 440   0
339 -1.09448e+06 440    0 440   0
340  1.23775e+06 370  640 370   0
341       953610 370  640 370   0
342 -1.41201e+06 440    0 440   0
343 -1.10555e+06 440    0 440   0
344  1.23026e+06 370  640 370   0
345       963253 370  640 370   0
346 -1.40332e+06 440    0 440   0
347 -1.11655e+06 440    0 440   0
348   1.2227e+06 370  640 370   0
349       972838 370  640 370   0
350 -1.39456e+06 440    0 440   0
351 -1.12749e+06 440    0 440   0
352  1.21506e+06 370  640 370   0
353       982364 370  640 370   0
354  -1.3857e+06 440    0 440   0
355 -1.13835e+06 440    0 440   0
356  1.20734e+06 370  640 370   0
357       991829 370  640 370   0
358 -1.37676e+06 440    0 440   0
359 -1.14914e+06 440    0 440   0
360  1.19956e+06 370  640 370   0
361  1.00123e+06 370  640 370   0
362 -1.36774e+06 440    0 440   0
363 -1.15987e+06 440    0 440   0
364   1.1917e+06 370  640 370   0
365  1.01058e+06 370  640 370   0
366 -1.35864e+06 440    0 440   0
367 -1.17052e+06 440    0 440   0
368  1.18376e+06 370  640 370   0
369  1.01986e+06 370  640 370   0
370 -1.34945e+06 440    0 440   0
371  -1.1811e+06 440    0 440   0
372  1.17576e+06 370  640 370   0
373  1.02908e+06 370  640 370   0
374 -1.34018e+06 440    0 440   0
375 -1.19161e+06 440    0 440   0
376  1.16768e+06 370  640 370   0
377  1.03824e+06 370  640 370   0
378 -1.33082e+06 440    0 440   0
379 -1.20205e+06 440    0 440   0
380  1.15953e+06 370  640 370   0
381  1.04733e+06 370  640 370   0
382 -1.32139e+06 440    0 440   0
383 -1.21241e+06 440    0 440   0
384  1.15131e+06 370  640 370   0
385  1.05636e+06 370  640 370   0
386 -1.31187e+06 440    0 440   0
387  -1.2227e+06 440    0 440   0
388  1.14302e+06 370  640 370   0
389  1.06532e+06 370  640 370   0
390 -1.30228e+06 440    0 440   0
391 -1.23292e+06 440    0 440   0
392  1.13466e+06 370  640 370   0
393  1.07422e+06 370  640 370   0
394  -1.2926e+06 440    0 440   0
395 -1.24306e+06 440    0 440   0
396  1.12623e+06 370  640 370   0
397  1.08306e+06 370  640 370   0
398 -1.28285e+06 440    0 440   0
399 -1.25312e+06 440    0 440   0
400  1.11773e+06 370  640 370   0
401  1.09183e+06 370  640 370   0
402 -1.27302e+06 440    0 440   0
403 -1.26311e+06 440    0 440   0
404  1.10916e+06 370  640 370   0
405  1.10053e+06 370  640 370   0
406  1.09183e+06 370  640 370   0
407  -1.2926e+06 440    0 440   0
408 -1.23292e+06 440    0 440   0
409 -1.32139e+06 440    0 440   0
410  1.15131e+06 370  640 370   0
411 -1.20205e+06 440    0 440   0
412 -1.33082e+06 440    0 440   0
413  1.04733e+06 370  640 370   0
414  1.02908e+06 370  640 370   0
415 -1.14914e+06 440    0 440   0
416  1.00123e+06 370  640 370   0
417 -1.13835e+06 440    0 440   0
418       991829 370  640 370   0
419 -1.39456e+06 440    0 440   0
420  1.21506e+06 370  640 370   0
421 -1.11655e+06 440    0 440   0
422       972838 370  640 370   0
423 -1.42911e+06 440    0 440   0
424       943908 370  640 370   0
425 -1.43754e+06 440    0 440   0
426  1.25251e+06 370  640 370   0
427 -1.06088e+06 440    0 440   0
428       924332 370  640 370   0
429       914458 370  640 370   0
430 -1.46228e+06 440    0 440   0
431  1.27406e+06 370  640 370   0
432 -1.01517e+06 440    0 440   0
433 -1.47832e+06 440    0 440   0
434       884507 370  640 370   0
435  1.28804e+06 370  640 370   0
436 -1.00359e+06 440    0 440   0
437       874414 370  640 370   0
438      -991943 440    0 440   0
439       864267 370  640 370   0
440      -980238 440    0 440   0
441       854068 370  640 370   0
442 -1.51685e+06 440    0 440   0
443  1.32161e+06 370  640 370   0
444      -944764 440    0 440   0
445 -1.52428e+06 440    0 440   0
446       823161 370  640 370   0
447      -908771 440    0 440   0
448       791801 370  640 370   0
449      -896662 440    0 440   0
450 -1.55306e+06 440    0 440   0
451       781250 370  640 370   0
452      -884498 440    0 440   0
453      -872279 440    0 440   0
454 -1.56689e+06 440    0 440   0
455       760006 370  640 370   0
456  1.36521e+06 370  640 370   0
457      -860008 440    0 440   0
458       749314 370  640 370   0
459      -847684 440    0 440   0
460       738576 370  640 370   0
461      -810404 440    0 440   0
462       706094 370  640 370   0
463      -797877 440    0 440   0
464       684223 370  640 370   0
465      -772678 440    0 440   0
466 -1.61833e+06 440    0 440   0
467       673225 370  640 370   0
468  1.41003e+06 370  640 370   0
469      -760008 440    0 440   0
470       662185 370  640 370   0
471      -747291 440    0 440   0
472       651105 370  640 370   0
473      -734528 440    0 440   0
474       639985 370  640 370   0
475      -721721 440    0 440   0
476       628826 370  640 370   0
477      -708869 440    0 440   0
478       617629 370  640 370   0
479 -1.65815e+06 440    0 440   0
480  1.44473e+06 370  640 370   0
481      -670058 440    0 440   0
482      -657038 440    0 440   0
483      -630879 440    0 440   0
484 -1.67869e+06 440    0 440   0
485       549676 370  640 370   0
486  1.46262e+06 370  640 370   0
487      -617741 440    0 440   0
488       538229 370  640 370   0
489      -604565 440    0 440   0
490       526750 370  640 370   0
491       515238 370  640 370   0
492      -578104 440    0 440   0
493       503694 370  640 370   0
494      -524764 440    0 440   0
495       457220 370  640 370   0
496      -511347 440    0 440   0
497       445530 370  640 370   0
498  1.49763e+06 370  640 370   0
499      -497898 440    0 440   0
500       433813 370  640 370   0
501  1.50107e+06 370  640 370   0
502      -484420 440    0 440   0
503       422069 370  640 370   0
504      -470911 440    0 440   0
505       410299 370  640 370   0
506      -457374 440    0 440   0
507       398504 370  640 370   0
508      -443809 440    0 440   0
509       386685 370  640 370   0
510      -430217 440    0 440   0
511      -402955 440    0 440   0
512       351089 370  640 370   0
513      -375594 440    0 440   0
514       327250 370  640 370   0
515 -1.75643e+06 440    0 440   0
516       315301 370  640 370   0
517      -348142 440    0 440   0
518       303331 370  640 370   0
519  1.53277e+06 370  640 370   0
520      -334383 440    0 440   0
521       291344 370  640 370   0
522      -320604 440    0 440   0
523       279338 370  640 370   0
524      -306806 440    0 440   0
525       267316 370  640 370   0
526      -292989 440    0 440   0
527       255277 370  640 370   0
528      -279153 440    0 440   0
529       243223 370  640 370   0
530  1.54345e+06 370  640 370   0
531      -237549 440    0 440   0
532       206973 370  640 370   0
533      -223651 440    0 440   0
534       194864 370  640 370   0
535      -209739 440    0 440   0
536       182743 370  640 370   0
537      -195814 440    0 440   0
538       170610 370  640 370   0
539      -181877 440    0 440   0
540       158467 370  640 370   0
541      -167930 440    0 440   0
542       146315 370  640 370   0
543      -153971 440    0 440   0
544       134153 370  640 370   0
545      -140004 440    0 440   0
546       121984 370  640 370   0
547      -126028 440    0 440   0
548       109807 370  640 370   0
549      -112044 440    0 440   0
550      97622.7 370  640 370   0
551     -98053.7 440    0 440   0
552      85432.9 370  640 370   0
553     -84057.1 440    0 440   0
554      73237.9 370  640 370   0
555     -70055.5 440    0 440   0
556      61038.4 370  640 370   0
557     -56049.5 440    0 440   0
558      48835.2 370  640 370   0
559     -42040.1 440    0 440   0
560        36629 370  640 370   0
561     -28028.2 440    0 440   0
562      24420.6 370  640 370   0
